Chanel_1,Chanel_2,Chanel_3,Chanel_4,Category
0.20702000989502176,0.12924989238212675,0.060583360695844884,0.11348555096721065,0
0.17983862103210352,0.10762328189045356,0.060101603161126844,0.10698502358392945,0
0.16376905147206983,0.13166283383837307,0.05553736360371105,0.12612051197526217,0
0.1556867095609491,0.10678255439952479,0.06313830060454131,0.08627787406473944,0
0.1724395207010018,0.11049849553559013,0.059802623338767055,0.11766008125173243,0
0.17391332017813074,0.09559989952775742,0.06768929960764036,0.11584828785907454,0
0.1471351352876841,0.09841396059307672,0.06137360416361337,0.10692017559225368,0
0.18984345476223874,0.10978191434183886,0.059829160370725554,0.1162461599897422,0
0.135123219643106,0.10551932151194524,0.05992267095976888,0.09676443911264743,0
0.16204194205088998,0.11404532034238303,0.06782332312931073,0.11756637958003811,0
0.173808689797326,0.09413044707577684,0.04703783008014433,0.10399722764815696,0
0.18088111750017374,0.10922847213740072,0.05786057532320473,0.08402476821404678,0
0.18415602296111563,0.1063060294328881,0.056167581054337036,0.11011707028318933,0
0.16586044334722277,0.09901610487723353,0.051133122283238394,0.09876172041537469,0
0.15851429505382755,0.10275643337985665,0.04955410604854392,0.10295306337645821,0
0.1408745674208048,0.09207367359783222,0.06383463990002906,0.11326581600137903,0
0.16342652451690193,0.09620855090236775,0.05231309183292848,0.11211817452414452,0
0.18150103445036952,0.07566036865878428,0.05133174521805458,0.09572811243725306,0
0.18279179212932617,0.08545663012242806,0.05584039798544443,0.08935340715949232,0
0.16347689181145883,0.08550293905126974,0.052068889935725254,0.10961080928949479,0
0.16467930784544013,0.0898120938036672,0.0528626834824676,0.10410993863315704,0
0.17449117246690837,0.11062137355802751,0.054569275827259116,0.10524628553439719,0
0.18356793326498913,0.08009570691604684,0.05563277959380249,0.08666122430197605,0
0.19172069508650955,0.09159450194694607,0.05624465016979719,0.092017333788446,0
0.1995006565323418,0.10992202984051569,0.05697848840622281,0.1064012009444025,0
0.17170005383777168,0.08410648755637488,0.05610719188141324,0.13119855064576072,0
0.16824155935719703,0.09161678655124864,0.05323395379150748,0.10165001422868968,0
0.16762330428799066,0.08113019206166446,0.05818755640401826,0.11412512422192242,0
0.16064544824660967,0.08616513206496672,0.05703122987763741,0.09782620407709484,0
0.15750855949005693,0.09705057266357825,0.052461601388249575,0.11103860506540422,0
0.1658560998480992,0.09262454723470616,0.05285958786732588,0.11361279372454919,0
0.17434094889732232,0.10227282309654578,0.05008146016099452,0.12002450823814641,0
0.14761876002424426,0.09058980873550511,0.051543195405319424,0.10453426145624176,0
0.17583778744966772,0.09757127390370995,0.056048495507696576,0.10084726938657466,0
0.14879825568035854,0.10214565925805048,0.05592150241680029,0.11928524381157289,0
0.15585723320044753,0.09157784314989043,0.05601518494889682,0.11709075630149689,0
0.1881786948859956,0.09850773471407247,0.05749768337450653,0.10748235400898402,0
0.16787925442838847,0.09850901525552243,0.05929073735131098,0.11380305016402184,0
0.1775642697402337,0.10783430235376674,0.047743360234428295,0.09320280816477881,0
0.15236474497262997,0.06747048898642957,0.0593912969791914,0.10313623466596773,0
0.18589650276028408,0.09052397277266289,0.06795482432853425,0.11989098538349573,0
0.1833890358357234,0.08982136681964059,0.06498867480336507,0.1150282843281585,0
0.139190149131254,0.06339764997192424,0.0473694924632853,0.1061295316021229,0
0.14769271222074418,0.08208149753580028,0.05608320423976687,0.11549206205745863,0
0.16985224406915597,0.07440171231985694,0.057302880567061065,0.11321602077742321,0
0.20197766488856253,0.08657199132806355,0.053634491040459774,0.11151421709093798,0
0.1710299330888943,0.06012498863769301,0.0548101835187005,0.09985812691162509,0
0.13540550261922885,0.06747377977834143,0.060861269293388816,0.11060712146361963,0
0.15608446223705938,0.06767570717579205,0.053964313449776945,0.10626327278203598,0
0.2246682897393934,0.07929809140351175,0.061538094946301906,0.11205625696280311,0
0.15325766852593767,0.07610175640728148,0.05356647878112993,0.10531783206257178,0
0.19277988664256684,0.07083896236196294,0.0514517125126943,0.11709294277238948,0
0.16937522673398953,0.07713928913084236,0.055957865635709154,0.09701163602023408,0
0.160248242448678,0.06842704926607415,0.05159285601300477,0.11201701223887056,0
0.16196170192713474,0.06457780052980655,0.057150909662434544,0.1093205523975382,0
0.157982469497573,0.06266252452609798,0.05783942125638061,0.10733198660102287,0
0.2197454851563834,0.06752551657701124,0.05741331910292015,0.1130681321908185,0
0.1779568581169538,0.07271030714917741,0.05494800762086736,0.11730301208273794,0
0.21964843283274976,0.07347216497112233,0.06221152078115555,0.11450377206807867,0
0.15745208322370804,0.06677913310778644,0.052997156597590536,0.09987272454513554,0
0.16970745587001718,0.07061783929466038,0.05697954638805765,0.11701228962655007,0
0.19188146193699285,0.07763157581123031,0.05689808985972876,0.11619910937374181,0
0.16628717962103828,0.06259702825963286,0.05318238687458474,0.11331723132258499,0
0.1981840362688858,0.06193135970326455,0.055308393289019674,0.09541701308428384,0
0.18492893260665702,0.06373743688778456,0.047639562411585325,0.10237070519256204,0
0.189348182063632,0.0673102246792257,0.06084567616349324,0.11810610229793912,0
0.21162285667762054,0.05846005046231255,0.0506356854026939,0.09749314918604277,0
0.19108739826119184,0.07698187103946484,0.06649469593191633,0.11296402366303046,0
0.25273542714343605,0.06726363336960992,0.05439807906631871,0.10517139386334795,0
0.19998534886252534,0.07091273831696282,0.05438660768209119,0.10766748144000732,0
0.167200219678306,0.06656707110496568,0.05805304748121808,0.11517790159939591,0
0.20806784750072796,0.07774967654639149,0.046021796440832506,0.13131367737875332,0
0.1763093535915932,0.05848313563363127,0.05369621980165147,0.10888701180931495,0
0.18840432326788825,0.07409648856981703,0.05799343542222325,0.1088482282102497,0
0.18136689983201118,0.07214303321719777,0.05486885022306101,0.132271327739076,0
0.1884100605271074,0.06987244524455602,0.059958505731145535,0.1090770217722756,0
0.19160716592064617,0.0685052590431216,0.050697724820046496,0.09943447827178707,0
0.16972646439698805,0.06809392951086364,0.04963440542940646,0.12464758398409119,0
0.2403173098771018,0.07459832939830409,0.05151038256640504,0.1085486666183327,0
0.1699871390677864,0.07158157697650319,0.058724752659704386,0.12157646681150962,0
0.21467511409428278,0.06691273859486167,0.058396301361691466,0.11909034677086688,0
0.16764871289759908,0.07341960979839834,0.05296247064941411,0.1152892536101493,0
0.16105148384563864,0.08244012625785817,0.055145945614725106,0.12521951814155946,0
0.17706836645085972,0.07274578760264307,0.05401357414119667,0.11038723815971861,0
0.1462810687265709,0.07129228989852408,0.05903226589142893,0.1068109896908799,0
0.179400563771746,0.06653973945541126,0.05667807900781614,0.09371356525427274,0
0.14901334697987795,0.07276597022024583,0.06403642079999981,0.12364625581293913,0
0.18235850287528532,0.06664482058600533,0.05779104328483643,0.11079957813268614,0
0.17644508148411017,0.07170444707967773,0.05492064563676741,0.13101703154749889,0
0.18513553061790278,0.0689560154036997,0.0516454247977622,0.09998728059588731,0
0.18379573548700073,0.07374799181506407,0.05637871715166107,0.11062117851292534,0
0.17676703147393824,0.05843158951973062,0.05468938991693033,0.1268360063625287,0
0.1436995934539988,0.06287462463766626,0.05385796774477494,0.09757791887427458,0
0.15690748327198256,0.059540904831972837,0.05057091775447342,0.11625015898225997,0
0.15300385763198385,0.07041711382735252,0.05541647684372024,0.1300925321637116,0
0.1586889924056448,0.06267513080385183,0.052945776683045884,0.10771972356537649,0
0.1940977087409963,0.07448170572309798,0.05619501674392737,0.11768635377881986,0
0.15566690196044,0.06481287587917649,0.04855920905563437,0.09323157666660706,0
0.06780284871333167,0.10024377892048801,0.05661410513493796,0.04228417313874844,0
0.045611245040737776,0.10771933833872599,0.05365798789614,0.04171964786346329,0
0.048255408416004605,0.09613817414301948,0.05436962639006527,0.038717762486799666,0
0.04842014648967682,0.10601284449960667,0.05424079655365942,0.041705711230185384,0
0.0491964254886762,0.10703509834162012,0.05925774705547717,0.043176630433928144,0
0.05981789994069071,0.11538686440310522,0.054292334464474165,0.041720471829975216,0
0.04971114211182042,0.11142689371183523,0.07271540968272022,0.04041138031801694,0
0.05310917019533867,0.11438359617217135,0.06012052472653138,0.050334449821247434,0
0.04725550895851047,0.11293413986243366,0.058386790413147746,0.044595374276356466,0
0.04470511486574644,0.10457524452465852,0.05637259180727444,0.04966540588142494,0
0.053589329055998294,0.09752976730685188,0.055763798501405115,0.04318494277377099,0
0.05218132845119241,0.11026541945023688,0.05878711965620717,0.04078864603327407,0
0.04708142105520782,0.10948924720656882,0.049702422027353615,0.04214748663915522,0
0.05098818404588082,0.08470246707498146,0.05905896755853251,0.052460214647442605,0
0.045545193728204245,0.10312268472145895,0.05237471483792884,0.04648558455506593,0
0.052959595752386984,0.10492143989251403,0.060036171975255945,0.04393445603299586,0
0.04802182978859343,0.12655508519630998,0.06073076617138362,0.04591939698887402,0
0.053288462722124064,0.10589290483251033,0.052389464769787654,0.046798707846681824,0
0.04668862784090419,0.0932520609024446,0.06199959024717789,0.05127733997829662,0
0.04848894137595402,0.11083034453777174,0.06037708204539853,0.041897171162683516,0
0.049950769440600166,0.11638285742970757,0.061396310317492694,0.041733648217612294,0
0.04625655522770061,0.10713982385254729,0.058578065352394196,0.04477022875895388,0
0.054276152348250103,0.11966970103798688,0.06807078632927463,0.0438795514080174,0
0.050021358606885,0.133248474980533,0.04888312163043382,0.045626232431383924,0
0.05189488686855446,0.12304033971447155,0.054920091631108836,0.045399971494830924,0
0.05438494380365821,0.12799135979732218,0.066949181626096,0.04295272545263716,0
0.05593778624324635,0.12787568780250752,0.05365296209258937,0.04274610014087173,0
0.0553140012274295,0.11089891368529287,0.05839241175616242,0.04657684425850229,0
0.05983241571288582,0.12539971726702862,0.08653738318606383,0.04199602060262476,0
0.05158047230081848,0.13753778300516534,0.07289574572285722,0.044925241865561544,0
0.04773750406951033,0.111056664400682,0.05691538482115148,0.0455437044741435,0
0.05556477378414106,0.11128558341212952,0.06863373812059269,0.051639473978486006,0
0.051976126148950766,0.13117588146173073,0.0620461936871927,0.043484354623488056,0
0.05027280945671505,0.12365027806209708,0.07253416639761,0.04735495786444376,0
0.05758832121992477,0.12889439540812825,0.05794592493981914,0.05002182985008494,0
0.05644352449363981,0.13863562346835823,0.062094430716568165,0.04763941901213034,0
0.05096419953727477,0.11245047252429849,0.05716104963438671,0.04573927337799397,0
0.05021006125360635,0.10007202842355711,0.07034302079728762,0.04296338620598175,0
0.06083432421758438,0.11178374745032969,0.0639879606866514,0.04619328266628666,0
0.053657173690888266,0.13469420888195863,0.060691687635429745,0.05103757686937625,0
0.050248073540262686,0.12039831232822766,0.06141367884344576,0.04175619605945682,0
0.051085352009538204,0.12568340339933293,0.0555490477632593,0.04184606951619119,0
0.05194392470009981,0.11136177439430231,0.06399737269646871,0.04596232449045629,0
0.04823334379478316,0.11595011584394213,0.056464324603099414,0.04674934850741024,0
0.049762662007239486,0.12692867979229347,0.060771690053730676,0.04843461563619567,0
0.05385293341568524,0.10981037120079595,0.06598506281885846,0.04595422324169752,0
0.05575946848355115,0.09436210162364729,0.059251776181398076,0.044576733809843554,0
0.05040120723539678,0.1151137889867131,0.06000532717990015,0.050074302013328284,0
0.049536640613486047,0.11456941387932423,0.05628106762609381,0.045560080102934386,0
0.054446674968997584,0.0963731486883811,0.05595503974594892,0.04183970032558223,0
0.053118984141898355,0.11654304975079928,0.058815460617633764,0.0434216104540551,0
0.048502787121446705,0.11521959186326504,0.05775871052030258,0.04555974402824526,0
0.05436867212037495,0.11221656969531096,0.0663085238496549,0.04460436587631681,0
0.05064700419790576,0.09681920736388262,0.06270114156793453,0.04600226636237156,0
0.05033252929170396,0.08866527662912757,0.056095694172734197,0.03947737550346631,0
0.04988216953131528,0.08946961861047092,0.05217470226498586,0.04276187455199198,0
0.05687545205108144,0.11502736610198828,0.053338850220822624,0.041391055476788466,0
0.05232877269533899,0.0947502692777069,0.06044123746221051,0.04886796227988652,0
0.05548048539946809,0.10835987358902323,0.05966148060527842,0.05556977621972168,0
0.05525117639474179,0.08349840068533086,0.054310413196157516,0.04856381276339608,0
0.051227007493879734,0.10355666317647656,0.05176912554403187,0.0444640579857587,0
0.048702924652026365,0.0905903958777712,0.05703032063133602,0.053160343845745577,0
0.05001028419097752,0.09957160360892034,0.056278612107764414,0.0441058333074177,0
0.051628539985699926,0.09638188477577486,0.0552214809826147,0.04934024109552064,0
0.04805302468254373,0.09767152187629351,0.05875714653588876,0.04501093954105143,0
0.05220271445386464,0.10574702604695163,0.05647852599419323,0.04305624691773705,0
0.04785866827058525,0.0902985522125949,0.06238225616118,0.04105976785764278,0
0.05045579516296298,0.09245070243767815,0.05327346190377997,0.04324238584086691,0
0.046086509663008174,0.1022620021035803,0.054558537945808144,0.04409161509713453,0
0.04823659346135026,0.1019844812019556,0.05692720631754053,0.042184976525363016,0
0.050910523221320156,0.08355918477046803,0.05633483641554222,0.0499765592899608,0
0.04472985629247738,0.0983248888026653,0.05196649011068962,0.04587381007031808,0
0.04870260950700926,0.10534500338771853,0.05650403994547238,0.04517644777334238,0
0.044282706834628996,0.08930464084878173,0.05791800081322342,0.042854535651661245,0
0.046003085284524306,0.09976292930265455,0.05220268104984309,0.04331980852687585,0
0.04940097447869759,0.0931138669799135,0.053805419553393206,0.04465204648657594,0
0.051902804134703176,0.09716446822038867,0.06144108900508794,0.03941443303158026,0
0.04868330823368164,0.10135160378578821,0.04728815975020504,0.044964754907091044,0
0.04515922493803799,0.10126014993890842,0.05910412865074155,0.04385917299912835,0
0.04986092434595875,0.10387824850861645,0.04975538208626966,0.04158650799148604,0
0.06034220619965404,0.10890902909887515,0.050045510157592545,0.04422308426671305,0
0.05354103956633443,0.09503480712374617,0.05234950389661803,0.0438129803667125,0
0.05109292670388215,0.09920040243912176,0.05770243221374532,0.04275804842646024,0
0.04642534533291726,0.08775397865661398,0.0603169921663752,0.04795220221112164,0
0.046161478414595565,0.10017158622742213,0.05183172934751209,0.042764331261834564,0
0.05041331327870447,0.09116270721671675,0.0560711264082623,0.04711677838373844,0
0.05082331004162487,0.11081517156928108,0.06159238569476178,0.04236190666494932,0
0.05484418515614011,0.100838643452814,0.05678997224966838,0.046146463023934346,0
0.05271004611464615,0.094378236452607,0.05072603837810332,0.049203617856354666,0
0.0459714847779818,0.09616385666365343,0.05154947014089554,0.04320574966155269,0
0.047340603198483794,0.08860342713460154,0.05494348095932015,0.043867363547826096,0
0.052330834880169576,0.1000054960341601,0.06087463678206118,0.04069535687788656,0
0.04431071144346237,0.10325099198186587,0.057114935874166654,0.05295707663621566,0
0.052624626004493774,0.11325230166403491,0.06280864432865005,0.0555468230191904,0
0.053092745192674456,0.08251749540769573,0.06329137718601814,0.039837018013758684,0
0.056989272771212116,0.11692386703735726,0.050905069426612895,0.05279543906675456,0
0.0532381397573903,0.09748483316782876,0.057335921767033164,0.04014304944569802,0
0.046001556364293095,0.10486901050031674,0.052073639903680434,0.046071963030222575,0
0.05162970629849744,0.11597963456241378,0.05507721968872316,0.04252341997071461,0
0.05537203341293983,0.09428649718183653,0.057383343435507536,0.03993255282042566,0
0.05003370449850788,0.09369223083948852,0.060491015629042875,0.042244230844293164,0
0.050814170772289724,0.10131583321216417,0.0510065676655732,0.045257760283492335,0
0.0536550798421141,0.11440169703796436,0.05763737451267936,0.04438831010537528,0
0.046316576549378596,0.09105896277589474,0.06091664577735292,0.04142211852608939,0
0.052316865795813655,0.09422236962002037,0.057480982271774526,0.04767157341294023,0
0.04933886902524161,0.1132782434980895,0.05432125344086172,0.043674012730828396,0
0.049573560885711423,0.10606218499616804,0.056788585079342105,0.04238540086968006,0
0.04663093310950681,0.11489160633239923,0.05755700619881992,0.04307149270507848,0
0.04799451878297727,0.09766614284188645,0.05634491704427783,0.0423517837772636,0
0.056039394459948315,0.11157030599878347,0.06307812362273992,0.04280591934026488,0
0.04970133043818387,0.135444189207641,0.060909311079429526,0.040554175454078814,0
0.05082160024373626,0.10366716873302907,0.057974555294399356,0.045429119459428235,0
0.07278052230283145,0.11708848597710288,0.0506844413966009,0.0448192440657252,0
0.08496425369548805,0.09217997535258761,0.05141731462400887,0.04295923969779006,0
0.08226246055489364,0.1191087734258613,0.05069935281767824,0.039504004108837,0
0.08087316899110969,0.11104647295490874,0.05495443523911928,0.036066587319234567,0
0.09307326756880437,0.11174234090689683,0.051561320456168354,0.04568190163802556,0
0.08610943163662692,0.08612634525595365,0.05475893996772021,0.04567751996776156,0
0.07272063575104593,0.0817099532217277,0.05211112716928312,0.04233637003309957,0
0.0876906512953406,0.0817248539813097,0.0523747867572204,0.04573894706070501,0
0.07864145499152374,0.10173126020199985,0.04982581026414231,0.044003872348713904,0
0.0755535486965037,0.10722120582885021,0.05087967156537951,0.04699312128019894,0
0.07568291933566973,0.09714353687684371,0.053093814567731934,0.04621683606534442,0
0.07891479685132952,0.094460758905386,0.05142107671580245,0.04382541050948203,0
0.07497960505179808,0.10891623708140456,0.05165551439213611,0.04285345822488863,0
0.08610583541746412,0.09786685202511346,0.051722521605120954,0.04400229182431761,0
0.08547909510035293,0.0889941839545809,0.05125047949571159,0.03828324166160349,0
0.07247046883144134,0.10011026725677631,0.05750345976474182,0.049061803735475064,0
0.07479407123164196,0.09676515873535275,0.054440995671372075,0.0494281472858736,0
0.09524430245136951,0.08451549570781196,0.046642163346428955,0.047460035874772925,0
0.07764881550353586,0.08056951879678823,0.05282143253316001,0.043277733028972955,0
0.08022171533625778,0.10243787269308582,0.0550222817591534,0.04541584158372132,0
0.07913478237421266,0.09427527651808176,0.050056911562759925,0.0430761607584962,0
0.08855768761291115,0.07365807507014194,0.046297751393276396,0.04683156277032293,0
0.0753160384605381,0.09269843538186172,0.05181669063868866,0.037884093887943525,0
0.08264355910054166,0.11290904884674878,0.052583473067707165,0.044110469994175935,0
0.0806570477844143,0.1034873743760445,0.0510911054558364,0.04264306937844687,0
0.07890942457970763,0.08703843003183183,0.05661428754897074,0.04062347696365521,0
0.08417981293589388,0.07753660015057816,0.0546856012037917,0.04274571021520838,0
0.07684424552227939,0.09692363631861343,0.052492392809311034,0.04715002063356561,0
0.07288115525678669,0.08951657659431252,0.05152502570344961,0.042367005123815,0
0.06560522780459714,0.08575710302815069,0.05762256131906822,0.04048945265901729,0
0.08281849002975132,0.0944060003235501,0.05511448997686736,0.04305818800563041,0
0.09007787384091956,0.10516491671238115,0.04751334648292079,0.04963212766847739,0
0.08740932607870552,0.08239083118793371,0.049083406920538204,0.04647591272773237,0
0.08520730959153308,0.1075216238346949,0.050201554798737585,0.045913973150328906,0
0.09756896007576157,0.09577038959335897,0.05208250080823707,0.044765315236679176,0
0.07237435235911686,0.09034223477493995,0.05189152489638331,0.04568932527842024,0
0.08625960700264398,0.09149213084354606,0.05705961181644901,0.04809183010757408,0
0.0875016153945225,0.07858076700183145,0.060581462341736066,0.044863128858612725,0
0.0771420459828154,0.09582854455221264,0.04931583097271864,0.04002680600572934,0
0.08214828348022338,0.09836307765596398,0.05578555143916816,0.04479654597095364,0
0.07296982355386822,0.09218226952701523,0.05295654676733989,0.04560726294068936,0
0.08897364141601335,0.1125436256560537,0.049899838896076326,0.04599481312558211,0
0.08633801469042077,0.1037603475730917,0.05591984009408585,0.04295612786560826,0
0.07547583620778155,0.09770601022705835,0.05806068286019897,0.04193441931419896,0
0.08399332535048264,0.10816237218701233,0.06141758376655885,0.039310974667490714,0
0.09362190854602029,0.12789904122335155,0.05667678080940644,0.0474505525297623,0
0.08406004691783275,0.11221494282423236,0.0644471557687593,0.04465510073631882,0
0.08318630286661152,0.11380881129781255,0.05935743324969136,0.040795930257951946,0
0.07054833160415305,0.09255023365822446,0.05726497685075358,0.04579903567044724,0
0.08072056437112074,0.09356198746504168,0.050540261679058056,0.04452041988692843,0
0.0803154976509482,0.11730281223184835,0.05226909495006712,0.0441192731472774,0
0.07837512244746403,0.13731994284082005,0.054175456087784,0.04122637414276925,0
0.08087888915912576,0.13908779546657524,0.053229107212446725,0.04254909667585666,0
0.08377677585648183,0.11613485811110162,0.05968253808423422,0.04162333938925614,0
0.0890414055457408,0.11923055479546185,0.05432590643190445,0.04426361449826772,0
0.07936061743129882,0.11215864175622557,0.05309680608101686,0.03963865592620056,0
0.066802075188841,0.10997604378274896,0.05344662226057436,0.04163966400219708,0
0.07867668287769576,0.09936852269543374,0.055988517855497966,0.045116039559453376,0
0.08333556242886299,0.11138387354635844,0.05649015946803175,0.04386668417352423,0
0.07602545253426447,0.09097784156258604,0.05200109168222997,0.041419357807015715,0
0.08363219984372855,0.09325217771449744,0.05054118980022162,0.040149349709425054,0
0.07894317020822941,0.0922811259079418,0.05240780688696286,0.042883564421204175,0
0.07842765482287443,0.0931767951247064,0.06000481481711266,0.04321434409258897,0
0.09786876545068812,0.10886745708268698,0.06025434321273669,0.04286707927139132,0
0.0914350839421817,0.09638177993109542,0.05526328190549053,0.042235015947917245,0
0.08795062016159043,0.09151857075300708,0.05301895750421884,0.04258697248501072,0
0.08143587407368183,0.07656977023634913,0.06095876002069102,0.04415438454990175,0
0.07772926760346938,0.08399718185140669,0.05263435132920493,0.04664507156212194,0
0.08086804798438854,0.09835320742302534,0.05254978017659673,0.041725677610107974,0
0.10201614186200844,0.11049528093226806,0.04814292348583634,0.04537402187583384,0
0.07704165154583954,0.10925005277609,0.04472480244788301,0.04048139154529495,0
0.0847371181371878,0.08740466117649186,0.04817066179966127,0.04916354511263448,0
0.072198445339865,0.08189880628196189,0.05214477936045458,0.04285480796665309,0
0.07753406923627014,0.08962897951017368,0.052683158917599594,0.04473425926796208,0
0.08761021903951888,0.10033288796612214,0.05017175857723485,0.04349600827187975,0
0.0745810187604588,0.09934906273390406,0.060066836367437926,0.043008045169261225,0
0.06962265308204896,0.0900811676118083,0.055107907220031255,0.04635356949382552,0
0.07223577956284634,0.10914988407915345,0.051091427347829614,0.04710860465575845,0
0.08848529293619775,0.09451056291722595,0.049175789126863316,0.04399809853381845,0
0.06720801532109906,0.09042042543553183,0.05364698313362261,0.03918073385768397,0
0.0837214016724613,0.1088631618604221,0.0535919045027906,0.04203449695346739,0
0.08394701839659222,0.09543760545479099,0.049396758289758945,0.047347535302493804,0
0.07542635279812071,0.09083580359161147,0.05527873779949418,0.0492943952413199,0
0.07763443109768763,0.08577878000193015,0.05665761968513183,0.043816392201950556,0
0.08596752733923779,0.09048300853087074,0.051378767472054394,0.041188248451641485,0
0.07719751210817898,0.0912965259480309,0.057462711788481606,0.04597109127203668,0
0.08583537808685283,0.08403092130943407,0.047239337232909656,0.04019480137829945,0
0.08637478271151407,0.09283884799248315,0.05327505129802413,0.044469549486983034,0
0.07904203181432001,0.08155764772895703,0.055749013160493896,0.04519505627965707,0
0.08248559922464609,0.08357200523094162,0.056079320438089664,0.044554903940208515,0
0.08109265944538271,0.09303130955038591,0.05384302124491816,0.04220122359634439,0
0.08815502741712383,0.09118834911606397,0.05580947563489642,0.044809579396928215,0
0.07119993008677275,0.09549208177419138,0.05846568877559769,0.0443560972659839,0
0.08821864621072957,0.1055701725160503,0.050687046992296966,0.043314629271041356,0
0.07286860405604856,0.10912928489576611,0.05682633821912859,0.04470341407584245,0
0.0706732789163339,0.10536381063622156,0.05586713218838807,0.04167060324191155,0
0.0821436286974125,0.09851227345600844,0.05583763423273694,0.04536163854650833,0
0.08174139762756506,0.1105163159933495,0.05276030336271172,0.04639255279464587,0
0.07658329962867462,0.0899801293522445,0.0534539651441359,0.042953648409133856,0
0.08437967574257024,0.07764926723039633,0.04675242063661261,0.04747117636200875,0
0.0830312175123499,0.12179436810975032,0.051451918185179434,0.043322747986440424,0
0.08835300448277673,0.10767290183750662,0.05695044900342763,0.04602627478717917,0
0.07926558345177598,0.17840356542820526,0.08860496150909251,0.109128575065407,0
0.09483439149400907,0.18303586046722428,0.08897110863512236,0.15326562944788602,0
0.081631525794103,0.19435282459305148,0.08753143862478592,0.13550332347791053,0
0.07498691217926276,0.14298489887601984,0.08923614926330663,0.1386380858545569,0
0.06846663173299253,0.21247373826159335,0.0806574683711097,0.12742387066780528,0
0.08740402368164849,0.14407855401088698,0.08191052857068848,0.12332028302976539,0
0.08674459625165461,0.13043357410762355,0.0884589993763294,0.14453774260165203,0
0.09106362978745658,0.21555329641668194,0.1070891493280743,0.13235020465790098,0
0.06791286826652722,0.16238423113228415,0.07537495643824603,0.12257938288978829,0
0.06270189847122337,0.17426151310362906,0.09600703127606984,0.11620340406003289,0
0.08858270644638498,0.20148978261935804,0.10519346038594896,0.14790284480219673,0
0.07632006869924546,0.12716363592202484,0.07851115316448774,0.13638774153411767,0
0.08776748700616366,0.13384475350945577,0.08203693962577173,0.1282802250277319,0
0.0887950187939373,0.1511852632128873,0.07361866748702296,0.1262811641763664,0
0.08400458575562969,0.10877540526376302,0.0690897985909262,0.10367708656602312,0
0.0943529787050581,0.1323245494013582,0.06439689207678824,0.09939529573590439,0
0.07703859457859843,0.14065257472708884,0.07229522036610388,0.11282668620636449,0
0.08135708506531845,0.15973907850432265,0.09232864709332096,0.11804831727072941,0
0.08678304855353004,0.1617725917874124,0.06768802428991261,0.11655665625519403,0
0.07876481212596556,0.1458595811644968,0.06744717409085106,0.11775496486772807,0
0.08636961169526997,0.15177039748020765,0.08018962584604648,0.11571217220281987,0
0.07717945446652177,0.12096825431928558,0.08547061235005167,0.1252437484863694,0
0.08196801299994533,0.1342806254678223,0.07245881884039165,0.1080944115950752,0
0.08629620996770712,0.16482043792701828,0.0768469889082113,0.12198565772337508,0
0.06427689027927198,0.1401580507222856,0.08864717026583815,0.1086355465584971,0
0.08575341383249993,0.15811095459816601,0.07425857212000694,0.11348210073755151,0
0.07919219742442092,0.20166113308098962,0.080860396698119,0.09923173842119401,0
0.09125504021142063,0.1993526410311538,0.0791999981743289,0.11267389036503006,0
0.07756167729428333,0.15666479710700426,0.07489816764117463,0.11415294404607974,0
0.07977820526014598,0.14370554134456134,0.07273460378003553,0.1181841049632157,0
0.062251493361100294,0.15001219923439754,0.08088395918071765,0.12251358589865172,0
0.05405117054001211,0.15415647975114918,0.07876853151122223,0.08711178783200071,0
0.05771460069016695,0.1596524765411576,0.07277732580889627,0.12668251606500308,0
0.06792988443187647,0.14182844434956637,0.07336541013184802,0.11296096696448697,0
0.06684704543749197,0.12653853927445716,0.06851793566778466,0.10993674413585486,0
0.07098829540744328,0.19019553722033328,0.07377495944347676,0.10940202111819217,0
0.06440836785104098,0.1530571799554522,0.08245509144955879,0.10317870264259457,0
0.059178270027779666,0.16636402671202194,0.08805061403698536,0.13271458409604184,0
0.07148041633755967,0.14738403445270282,0.07503655891066388,0.11605888251881294,0
0.0759968520814013,0.1709956803703105,0.08618349581832516,0.11983515327916927,0
0.0694460307486326,0.18903557083135747,0.0764178779560013,0.11958517817545188,0
0.06826599339328857,0.14085591142894258,0.07773730290496844,0.1506915304194367,0
0.06757876410521141,0.18761987082535994,0.08004153687104174,0.1380352773782744,0
0.06764097559730427,0.14018126039820938,0.06845517578800786,0.12650599014896738,0
0.06451766409054953,0.14570243470468447,0.08628620789672005,0.1275336257782263,0
0.0787753650426549,0.15248964064628306,0.08509794225985007,0.12329177369446696,0
0.07484964823089137,0.1481828515708479,0.09133858524957975,0.12632765981340965,0
0.06608370253059966,0.14280963575795183,0.08356807594794198,0.12445655893806763,0
0.0673657128414949,0.14539358653339332,0.09195571179547757,0.1286329595677818,0
0.06333642691346898,0.14198414277511007,0.09623611039654505,0.12413706033279714,0
0.06628625782450312,0.15632387317818044,0.07509579268847302,0.1316106468498585,0
0.06429291109973433,0.16446652370934034,0.08220807917177138,0.15078669866412023,0
0.07946128642959566,0.15521419012154986,0.08326901049908617,0.12115422085200028,0
0.05828934020318396,0.114761516227501,0.09367291654976384,0.12592781145149384,0
0.07476787573754883,0.1326604374222762,0.08192623723604467,0.1336976771158776,0
0.06469225411240831,0.18196177724621293,0.07440961241084167,0.11504206514658373,0
0.06002056017889231,0.15864011027502892,0.07909118403397236,0.1025320884959082,0
0.06447326873813909,0.152133072532553,0.08275956119050525,0.12858453710737044,0
0.0700516729880785,0.19511163596933195,0.08842416089912404,0.12689294920457117,0
0.06609300354346079,0.15647940301496363,0.10191354585060959,0.13518598220355235,0
0.06731294940179551,0.17382022190641974,0.08454906630193135,0.10841420205554235,0
0.057663559334111124,0.1910654132610081,0.08228220494117981,0.1257212217951203,0
0.06598946232846137,0.1727935614158038,0.10044601699566902,0.13268812536387875,0
0.05853519933555807,0.15067007791848405,0.06919848125111693,0.11888672590475427,0
0.07214435709185209,0.13319402968927233,0.08644958307786649,0.1179979968403905,0
0.06259555354338107,0.1492891707702014,0.08700815111907756,0.12040824390435806,0
0.0659702557243034,0.16905925060020335,0.0869623649321838,0.11721613289497954,0
0.06887827032203689,0.1874509649904035,0.07484799301729518,0.1244986930435507,0
0.06531259962944043,0.1292715871652963,0.09400266491205533,0.13260060995389103,0
0.05618327662542464,0.1637335478164671,0.08715131416720043,0.1600343060871475,0
0.06580300042812944,0.14363142798579,0.0846504650094658,0.15117104826447017,0
0.06273388471502932,0.143804109273454,0.0949776170539923,0.13751002554171407,0
0.05857296095952027,0.10658664794306137,0.08556599137308289,0.1304637133594292,0
0.061558699393918705,0.1614599612155445,0.07839035001607286,0.10658430033018133,0
0.06674992283957884,0.17590201065906663,0.0922924505347385,0.12411734314267597,0
0.06589518579464532,0.18919369485204804,0.09025912651564308,0.14110922873548568,0
0.07290328954425931,0.16933821910154076,0.07998776669882696,0.127671531037498,0
0.07260979617183003,0.14825443704484964,0.0954857835952583,0.11622122910203393,0
0.0698591102512645,0.14617994948755683,0.07462966274883467,0.1251129352865703,0
0.06583957334475124,0.13037121600849463,0.07247856762582006,0.12961340608768007,0
0.06452730950818661,0.1933512585599084,0.09712035233387559,0.1173611059079484,0
0.06370977640359583,0.13224217415349038,0.07969126600858475,0.1470188209878619,0
0.07147765183814635,0.14253765713935918,0.09176559766179752,0.14588890320145667,0
0.06756594788095915,0.13030776909551658,0.0911298615858569,0.14178366355323527,0
0.06605481947990019,0.17283324192893113,0.09196097896109819,0.1444083502562637,0
0.06670840715048112,0.1325275497656831,0.0866897717971026,0.1403442371423165,0
0.06749062306737494,0.15246623041726046,0.0867511536145249,0.14101441664318304,0
0.06522372808388573,0.12671767603257275,0.08231140668844844,0.13399500526810107,0
0.07112016999999407,0.15949443277059275,0.08290877902543954,0.14224579901677134,0
0.06617548433547828,0.17592857673689222,0.06874159928370563,0.12265794233633058,0
0.07417206970896295,0.14869889462709296,0.08183248018272266,0.14674875918065736,0
0.06499749740724386,0.1472035984034138,0.07955446534784265,0.12181520395134761,0
0.06520791654716107,0.1712032520743047,0.07993531893077258,0.12111853284329356,0
0.06693975892037891,0.1638301950855707,0.09761406264799935,0.11824705572623875,0
0.06773175249871072,0.17102351543503969,0.08823761022399229,0.12749214095814687,0
0.07379157211407245,0.14254948149720995,0.08956732092100424,0.12707152218895926,0
0.06670528658430477,0.16500734353264448,0.08585111746516201,0.12313274911056103,0
0.0655474103521466,0.14612034290981663,0.07876719228998462,0.12436592691527892,0
0.06520580626626507,0.11801181962480621,0.09266732680079404,0.1338299290286643,0
0.07357362287575911,0.14829461287548606,0.09517498400276485,0.16267349502361295,0
0.07067520394015352,0.1414949469563243,0.0829801544746699,0.1264383764113719,0
0.06056772214413459,0.15074197178486642,0.07527711987123098,0.14033174080821417,0
0.06592555537201727,0.16635898259857043,0.07079791499508668,0.14285000525566943,0
0.07793152089845348,0.13315934808363716,0.0673680151246425,0.11401522949119226,0
0.08830927744405626,0.09781538706409128,0.047803978006324487,0.09876632991707882,0
0.07178171075988345,0.11325558122809024,0.05842341206015257,0.09421845438284789,0
0.08956298576330765,0.12768775787567885,0.0511670881033134,0.09578221792943635,0
0.07680514830941887,0.10493431299408038,0.05061311210919142,0.08713513629168702,0
0.08985321432828079,0.11279809230168632,0.051685599900864534,0.08834613319019975,0
0.09773765804058684,0.09440977741146717,0.050019307151951124,0.09489717267755453,0
0.08244064381047268,0.12662173603115665,0.04661468960291265,0.08497746459369152,0
0.0922545469924786,0.11199578091407056,0.047837694209985196,0.09569213545292712,0
0.08979958175877864,0.11181772994168804,0.04206252832090817,0.07611863010556298,0
0.0857191234631304,0.16415795491372778,0.04860767326669003,0.07416529716549851,0
0.09244430323592948,0.1270041631168267,0.0570904671304215,0.08773873987407063,0
0.10643204918749329,0.12401277349441692,0.04524876916853883,0.09115248247331081,0
0.08394258516554952,0.11863555962787457,0.051048894449314534,0.09596888914413271,0
0.07999628295142444,0.1226260771343827,0.05168527800880358,0.09012490059840024,0
0.0833727844287821,0.18020860413830353,0.05110507265598496,0.0918215458213306,0
0.09558179775364548,0.15110365142286872,0.050440439298401626,0.09692432579339293,0
0.07729461644651846,0.1246481775347932,0.045413578601041546,0.09462353649503595,0
0.08201884626871549,0.12022663361979459,0.05572524177888269,0.1245090381551362,0
0.09851228773944516,0.13333123859174617,0.053238187997581156,0.10585765820319601,0
0.08516863349226247,0.12191342787752492,0.05562666922202694,0.10740741639735167,0
0.09932791326605367,0.11890285589274996,0.054205740040924634,0.11489794865750459,0
0.09686903106130604,0.12034345907213265,0.05047921615434218,0.10127781804836869,0
0.09188335079253503,0.11596366266313819,0.05674492122431407,0.07846114026126563,0
0.09388785723236882,0.1054164747098934,0.04926905684403487,0.09075953610197317,0
0.0808349359594477,0.10391276139900057,0.04707079492966425,0.0876414565108139,0
0.0856293549818775,0.13421009678308365,0.052293085126900694,0.09354087235277916,0
0.09681320746295745,0.10432415507677267,0.048660999938777746,0.07500128065751321,0
0.08582925157100604,0.13516103096293955,0.04508972243890311,0.08249837143599477,0
0.07694243485124536,0.11145672918611338,0.05446698618678841,0.0919384030706676,0
0.0910323309868173,0.12833390296905348,0.048320714293224584,0.09805203450972699,0
0.07574902483019523,0.10467678471366092,0.04944942565563013,0.1057732664777175,0
0.06824602297156213,0.10858628499920697,0.052835637720528066,0.08367975964902011,0
0.05946320125005827,0.10486385552382851,0.04429861766674276,0.10271584131290895,0
0.08986073990048789,0.0932053802834069,0.05179056619053069,0.10001884813651475,0
0.08465010991090818,0.1074379107218375,0.05648650492909328,0.08210789633306985,0
0.06748291443687644,0.10976995695512404,0.05250844238732182,0.09751325106408151,0
0.08333954836748529,0.08075263971327637,0.047344694082475984,0.1170060107483559,0
0.07903481029985633,0.11856775138530967,0.05188858883763697,0.10436048329547597,0
0.06577967757568316,0.09589960341937964,0.04598287799231724,0.09768107590814835,0
0.09511633997663085,0.08506625598931174,0.0508837192467469,0.09700497837725033,0
0.08749300744219758,0.09890554353285586,0.04647827861767681,0.09635906267243466,0
0.08867985368643326,0.11159826373954108,0.049884216638138384,0.09358094845548645,0
0.0759620784054112,0.10168653603588285,0.04206445456224272,0.09980260987773419,0
0.06593441337167469,0.15466410735438146,0.04974603776966899,0.08787765493000467,0
0.10296854128888883,0.12175481689892528,0.05539541646728155,0.0977437923189631,0
0.10224072621775677,0.13706420989643278,0.04881923658495334,0.10188896860169817,0
0.07279179491761825,0.11732155501008348,0.05554112091237736,0.08915414354673785,0
0.0735944090814989,0.09424175129613793,0.04739424660166696,0.09590152797172798,0
0.08232225343692945,0.08366305909350726,0.04474860348772169,0.08480517338900032,0
0.08252810817195227,0.07771096662302823,0.04676739147769531,0.10117171121135296,0
0.06714800049158265,0.10231117359555857,0.0507710865593244,0.08482657709880995,0
0.06592959675559623,0.11700240110434211,0.044897158139087165,0.09284319136371391,0
0.07659000860809136,0.11300664083226904,0.048385038716775394,0.08780612036755037,0
0.06529275535814572,0.12304680269406065,0.04647481401380165,0.08764762072801736,0
0.07885452208786631,0.11587669520435308,0.050568389693865734,0.09929007351540602,0
0.07251653926234478,0.11016209288388915,0.05137515694225474,0.1047474898234448,0
0.07353164429406517,0.09315680085906658,0.04999480674859718,0.11932388834842295,0
0.062048701535384956,0.08858653919226944,0.044556547152864945,0.08293957753996299,0
0.06583684958409608,0.08697862884298678,0.04647969619237969,0.09151732093963251,0
0.06460596912655851,0.09165128381917202,0.05202123719452202,0.09289762544659905,0
0.06866333269675351,0.12272115979333538,0.04784326169285816,0.09920706241731335,0
0.057724172888522045,0.08649359003211053,0.04815281865582641,0.10465964825843584,0
0.06799431453951392,0.09485250989531184,0.049954247532868624,0.10223143291226308,0
0.06899311651685666,0.07547019004090608,0.046313670429516555,0.10279833815891529,0
0.05300218278922582,0.08531693162033555,0.047370061388368065,0.09149123483338104,0
0.0631618478576831,0.07317994879572437,0.04929936368088892,0.0983724163162846,0
0.06142688911728478,0.12086526181890263,0.044416194546998036,0.1128874896806491,0
0.05849334482462868,0.09360689793022928,0.04592087163339509,0.060794552424823844,0
0.06822584538068625,0.0887091877787927,0.05007612709829706,0.0952766727560446,0
0.06624709953271511,0.08402531319933779,0.04728315333638569,0.10668080437380217,0
0.07017274728526166,0.09371668983988668,0.049045647009640606,0.09665785730880018,0
0.0761925215064336,0.09518365281161684,0.05359543403298929,0.09999596041823805,0
0.0752635695735451,0.10304991456612239,0.047011893872413564,0.10443753010587702,0
0.06879453666230478,0.08536501476772965,0.052779153410538404,0.09917643529909284,0
0.05954804299979102,0.10385023196204916,0.049672617554780356,0.08612023046216162,0
0.06595383675869892,0.09382410103354585,0.048891092173279374,0.09699627029329635,0
0.061861324538751906,0.10810216031118315,0.05051858548706908,0.09833461795047954,0
0.06593202999793124,0.11558457976476981,0.047911306895881994,0.10301891129446689,0
0.07223649607051226,0.09861689676650849,0.047331639145323644,0.10464177393550143,0
0.0709700625685877,0.1331704079128473,0.04941314969447023,0.10415117908557825,0
0.06989149466147375,0.12323802700749409,0.052358897882312364,0.10405851647656639,0
0.07149927016018119,0.103749157311564,0.050703859134466865,0.1156668952959706,0
0.06242217615641288,0.09533308447261951,0.050511923558688145,0.10642929122955783,0
0.0734792527194679,0.09307824698674219,0.0434594298870189,0.09942186192733742,0
0.05978994778976441,0.09910415227293201,0.04708648178276454,0.08444902990619481,0
0.06450205956730755,0.09810724323172187,0.05287583337196901,0.1258342073832857,0
0.06996489157503073,0.10783517954289133,0.053390125296914046,0.09587222905297314,0
0.0642173807971556,0.09427841020294639,0.05130621084404151,0.10811455816459357,0
0.07069480140283588,0.09347741216952778,0.04366883488061796,0.09982540525852769,0
0.0676653138889126,0.09829475123077842,0.05430268870459854,0.10871604330001983,0
0.0739621796225213,0.09294276407990677,0.05076202192030262,0.11041372575755497,0
0.0762827099533674,0.0772267896782047,0.047686832868868115,0.10787238854297787,0
0.07339255575156114,0.09042691954510268,0.047090185861566825,0.1031749747309275,0
0.06886435075376961,0.08020497284417694,0.05176952078311232,0.10438166408860707,0
0.061870597669808805,0.07001559755529772,0.04696902764882947,0.09127276638254762,0
0.06799274467169046,0.09392812999730461,0.05136660014610745,0.09798371589139528,0
0.06854525212426782,0.11997440584189055,0.05072349433469948,0.1067663350453602,0
0.071778119506475,0.09588773246980459,0.048083445577197806,0.1077803300922224,0
0.05891183209002412,0.11426775905474716,0.05323320062223565,0.10299801932732512,0
0.06777282250489244,0.11163396875656646,0.052835521674003905,0.11113398065446334,0
0.07700385353589433,0.09237342512393378,0.07481926426774912,0.0857781950436648,0
0.08917824712615088,0.09281069433084164,0.0774929055615346,0.06298614559351928,0
0.07782545829900282,0.08670613660615366,0.09630910703510827,0.06076131530586245,0
0.06918268339779614,0.08812023999508155,0.0955631918787306,0.06411223399552485,0
0.07485152133494515,0.07665607605979488,0.09222817145451061,0.06634665175549996,0
0.08836074880345955,0.0928198989415678,0.0847075619670569,0.06351663605375825,0
0.07670646082923561,0.10119657952406082,0.08829359453029409,0.054466261335453986,0
0.08563526677060271,0.09452949403066882,0.09112531024029946,0.06129163082986407,0
0.07041853546781579,0.07860982495741334,0.08970773786342508,0.070958034395624,0
0.08600568636582466,0.10118025322786027,0.09755272319754198,0.06271469249107957,0
0.07320190338952912,0.08235329716120814,0.10677693692876225,0.06789253341030901,0
0.06335723824210486,0.0771504205701027,0.08167744712663053,0.06309215842267483,0
0.06777621616338846,0.08334680280411731,0.08984278160469969,0.06078282968312879,0
0.09368609188855134,0.11597950697459139,0.09449204624256421,0.06811861527250081,0
0.0734816483270801,0.093233765714534,0.08064704018669037,0.06278232925172984,0
0.0734573423030178,0.09516103181719882,0.10604741727653251,0.0676159006018341,0
0.08358044296364428,0.0933847002763584,0.08009384063844545,0.05998897398499052,0
0.08011189633540804,0.09344350461803533,0.09886212283283181,0.06241329967646062,0
0.07622636953841272,0.08987986843356999,0.09310385225992451,0.06278008682932039,0
0.07565466121519879,0.07751818686190426,0.07953165264560277,0.05199593304606504,0
0.06809504387428707,0.1001773204944869,0.07735099434588077,0.049083620667050534,0
0.05520118863941033,0.0812348809487594,0.06252381835220631,0.045839019078161104,0
0.06285754828458803,0.0792319448613548,0.06223970376781431,0.051798649848395516,0
0.0637707179201184,0.06599625617384389,0.06681170428574197,0.045099738722502246,0
0.07079166023976315,0.06735885538683638,0.05874463339685164,0.04713955376037808,0
0.07407266820623763,0.07263361688819003,0.06620189088922375,0.05182908071456761,0
0.06537107003913831,0.07112909401600004,0.06358609440886437,0.05218543775560431,0
0.06567930773007744,0.0739975258573861,0.06702483415600753,0.04743417105575363,0
0.06057714338245598,0.06914301770938677,0.06485480826562946,0.045477674932214905,0
0.06588351729562637,0.05791404111316845,0.0629952502082124,0.047216108391410674,0
0.056705002765606305,0.05982288464388626,0.06708249726996963,0.04668223493937442,0
0.0681165424176917,0.06450476566623267,0.07533351694484663,0.046864933742001846,0
0.05991790448395827,0.07160168159920074,0.06537008459127437,0.04788487775059672,0
0.06672258951624954,0.07612166490491513,0.06377649410513271,0.04792147572161869,0
0.066140706110897,0.06644735688807993,0.0561157386002082,0.04543464504045378,0
0.0563438558662854,0.055159124680987145,0.06934304037798054,0.05233515476016957,0
0.06185163559715279,0.08056236099023731,0.06164270255047939,0.045798169242027204,0
0.07615706507972309,0.06512272797570398,0.07067741673734,0.0492725148690929,0
0.06747970398716949,0.06352503236108847,0.07747648124275103,0.0513673935876954,0
0.058719990813491316,0.07704915314469699,0.0647025835288316,0.04527900993110101,0
0.0711299466676462,0.07954222877669334,0.06423311993259583,0.0485851852907247,0
0.05916629077668067,0.07491776846786338,0.06302249364845475,0.05017820860090771,0
0.06374128755320246,0.07019298036886007,0.06868644738114557,0.05101845535699868,0
0.0652692899852774,0.06503892073273347,0.0679961830605537,0.046669338511978235,0
0.06660843236175502,0.08053214085330548,0.07432523128000622,0.052223520136770965,0
0.07071503909177994,0.07423605367114501,0.08977903501633047,0.05452346187507748,0
0.07587067228383602,0.08462210443215369,0.07621768281986319,0.0505986490640897,0
0.05892622313803524,0.06056298657875741,0.07902369446147726,0.052564049718037076,0
0.05726313787052329,0.0651015314580235,0.06813778975527804,0.0542574636106022,0
0.07382337079521918,0.08785291162436504,0.0675051108731406,0.05395999104405931,0
0.06017430269190797,0.06364308210437376,0.07505664303323234,0.04849337202955803,0
0.06702987327495936,0.06273173361866365,0.07307014872396607,0.05293779095452008,0
0.07868291566093676,0.09469980860515739,0.06118039245990774,0.05164457302027645,0
0.06808909850919222,0.0730229930958529,0.06297752945180361,0.0501435328403153,0
0.07501039247322958,0.09438174201164191,0.07862808620521904,0.050021105763853234,0
0.0730436515332151,0.07125843063604588,0.07448615000746532,0.0533122387272204,0
0.06615298826382945,0.06423823616501408,0.07017603644118546,0.04678913839577351,0
0.06057805739165839,0.06565680678054467,0.07210326300841985,0.05729975037253707,0
0.06530676408680922,0.06524348383724643,0.07165576675482696,0.052555654311015096,0
0.07254816709100047,0.06730447791936836,0.07059388695960378,0.05521536522826305,0
0.059393502875705786,0.07276925686443206,0.06978945149792384,0.055667632017063276,0
0.06412126411472376,0.08005686071721291,0.07413739090814912,0.056862793262852734,0
0.06529510257804275,0.0612586205040903,0.06869440613803182,0.050838145855646784,0
0.061421391784673526,0.06353258027566704,0.08150957232054015,0.05015679403047912,0
0.061609703491636726,0.06305517076254039,0.06543960889490195,0.061546111258042324,0
0.06496415235312174,0.07233266432997175,0.0692308167496896,0.04817491403296831,0
0.06261935621009222,0.06773210225499343,0.07323939910303905,0.05231147348077286,0
0.0624709898755752,0.06640029066507927,0.06992333655615388,0.057689081508504464,0
0.06132634674762513,0.0647617129594452,0.06666351115320149,0.05428644186962127,0
0.06424177418719432,0.07715627145394206,0.07104124979068971,0.05085154575054816,0
0.06444618599842042,0.06274875364056524,0.07198091107965944,0.05498204076269465,0
0.059835426561771675,0.06662395738345321,0.07049067151155976,0.056453470836717784,0
0.06240473253625702,0.06733544800140943,0.07113089687585844,0.05858506264244657,0
0.06116472945500041,0.07284593152397145,0.07609712289720542,0.057084285159205696,0
0.06786983935830246,0.08891995860687558,0.06417903351905656,0.054366326963472544,0
0.05669334342425072,0.06024609052163226,0.0777495397426513,0.05165084323379838,0
0.06240181460793519,0.0674443160860626,0.06678858796867793,0.05356853616190724,0
0.05906892103240084,0.0632557194137566,0.06690312032416727,0.04926009583658966,0
0.06239794445527087,0.06729844278466485,0.06890811063419436,0.054438519360278464,0
0.05898867665996852,0.07663003279300948,0.06903543322577808,0.057542052278352664,0
0.0704679167576334,0.07131136455240569,0.06529029458247079,0.05285790503228094,0
0.05982798960852346,0.0681143662860911,0.06906817494601057,0.05300930614278116,0
0.06869586456469376,0.06699038109659372,0.08685170263640958,0.05967266252128234,0
0.06517160456589886,0.07720795489281097,0.06474123437999817,0.05423568461631899,0
0.07209338037476658,0.08612857317712527,0.06956216294676013,0.052405233269050576,0
0.06878636490935197,0.07064471436112374,0.07750156457219387,0.06396551628248473,0
0.05759377241406922,0.06569624166606147,0.06759965141602677,0.05575955935502999,0
0.07406683976073371,0.07734556438738763,0.07033506885545514,0.05434582586195242,0
0.05864246783883168,0.06423231079210255,0.05963473848897698,0.05763030531245398,0
0.07211986815589784,0.08042052831736816,0.06307062856873459,0.049551843695669624,0
0.059263127603758556,0.06513418135669963,0.06689347560277605,0.053495868624641195,0
0.07438493153515238,0.07298876099635729,0.06929977158225172,0.04829667266824646,0
0.06306041319357288,0.07929562258109096,0.07292616452755189,0.05555541604648616,0
0.07213668406030502,0.07940743959364847,0.059386753624098614,0.05085742514614161,0
0.061380949805532686,0.06316492014170229,0.06418361599612034,0.05216231922781118,0
0.06268689631703822,0.0686524031838917,0.07093165962337467,0.05783336859555454,0
0.06258616757481847,0.07046743425495318,0.06217961849836443,0.05229910333958713,0
0.05661565038210091,0.0607054373517556,0.06826491112068346,0.05567137679855092,0
0.06170812344631188,0.0752278082174942,0.06521728875968505,0.05035548641690721,0
0.07456536096478866,0.08027679053770706,0.07719144676474199,0.054985614924315245,0
0.07230707510310133,0.14308253486914552,0.07282436099421347,0.056073966774595856,0
0.09460718372550622,0.12262654688054712,0.08526776342365186,0.07227502416280772,0
0.09269927903627226,0.14264325210113166,0.09053252262702903,0.07035657956191073,0
0.08206475774052789,0.1333147071688171,0.082740680065737,0.07031467586593582,0
0.10124983974313542,0.14244430060003072,0.09038380905891497,0.0740473605343575,0
0.08503268526223003,0.1262649723173053,0.0852456859941191,0.07629124293019189,0
0.1261817598950047,0.15081363820351965,0.0777342327169296,0.05857699835840901,0
0.08044664267058925,0.14544176945602244,0.08983067699855803,0.07383329481789679,0
0.08882621476664455,0.13927843429090841,0.09118350953685704,0.07660647730036516,0
0.09204735846623933,0.13407236875476453,0.09859793894006139,0.08591238861438572,0
0.09369506630350384,0.15400169840280106,0.08523886845446098,0.0747148883620195,0
0.10216725605896357,0.13853461012354298,0.08396121013826359,0.06455638514904026,0
0.09682334032969171,0.15823787754328786,0.0756944492447232,0.07578970659529986,0
0.08293272092687863,0.13207963133465606,0.08831475756081329,0.07010367399126399,0
0.07093837571939997,0.12963033747777822,0.07602760529786838,0.05955765993444971,0
0.08280755680235598,0.12740042723253098,0.06779582613252437,0.06058361258459624,0
0.0839866058620628,0.12657669763649682,0.06908187469511579,0.05856819868420641,0
0.07043691103146314,0.0952981017837117,0.06467551451172726,0.06462343310495178,0
0.09098981623911577,0.1102996110666176,0.057987603632938985,0.06625655625422408,0
0.07310964057923827,0.10823442064391631,0.07389634708026888,0.05995291756392026,0
0.07809139280045219,0.12929918969634324,0.07042168392572762,0.06209760448243645,0
0.07048044390322915,0.12630468028474293,0.07840462621682066,0.06521240809833821,0
0.09015338069627642,0.1363614268598061,0.06539234356015682,0.06861113607648958,0
0.08468764391760183,0.11846817011425029,0.0689972693461119,0.058285211518825215,0
0.07664494853669493,0.11953160813910574,0.0736903688500877,0.0654189176851167,0
0.07424348493636097,0.12797528200098926,0.07846719136857949,0.0646040834964582,0
0.07425483102686478,0.11028291144823682,0.06958288534257227,0.05653285322142795,0
0.08463747669282226,0.12624178373971967,0.06360184753226415,0.05209980440928483,0
0.08885754766656147,0.13086346468281462,0.07152917169380484,0.06585038540996288,0
0.08060570131754191,0.11466277600603388,0.06429614248281225,0.06207178764168797,0
0.06463580435128223,0.11459325625514707,0.0668468260316147,0.053786050901167455,0
0.07500007749129511,0.09673451091253267,0.06512205111144033,0.055736097585886074,0
0.07245540275613634,0.0994450380573155,0.06833438953204987,0.055049707391308204,0
0.08921036315153405,0.11126828379364362,0.06084905912756639,0.05847775093555775,0
0.08998199388900287,0.11451253038825349,0.06940474353364139,0.06569609717081196,0
0.08547565481203886,0.08813473963353011,0.06067375740854328,0.05419561985306296,0
0.07665067166121593,0.11152741619587064,0.07027558874350913,0.061773179302751426,0
0.08236901413192826,0.10435976358101723,0.07814117501518172,0.05769198564958984,0
0.060485877157882395,0.1031785681285739,0.07174182465607055,0.0701028545163927,0
0.07262735430217407,0.13372549649281595,0.06996219031268634,0.058385740474085915,0
0.07659610445563961,0.12258093691479699,0.06191161362404032,0.04988676413548673,0
0.07716706237070341,0.11425828586923525,0.059110604928449044,0.05135335889984895,0
0.07980086319072188,0.10351306423901646,0.06931006650561353,0.05751234192537981,0
0.07909472146895317,0.08467395880859661,0.06651897014399633,0.054706273073873234,0
0.08034868425622202,0.10915287274728623,0.07788686338798802,0.07360194792470885,0
0.0711747955925922,0.11262898667493568,0.0640980646740297,0.05797563771381079,0
0.07695416203132778,0.11504702636365688,0.07190183734763735,0.05485522264860806,0
0.07345678889123901,0.10096137993932712,0.07416929129787626,0.0629270135777828,0
0.0805845487506316,0.12178815968011932,0.05664704400015655,0.06195303316199679,0
0.06826742396153095,0.09973448660490354,0.06753364707176998,0.06294989498823997,0
0.07144109400384911,0.09943265446334337,0.0609665080938138,0.060864586238037185,0
0.08551032917581998,0.1220102830932739,0.06023984147173924,0.059139934611070685,0
0.07777756696454319,0.08804135354439824,0.06710233457688101,0.057276769783581066,0
0.09121888241906027,0.12812875080051017,0.05260758717061712,0.061821614561791235,0
0.0714684408930308,0.10566975013672654,0.06274667662622652,0.0572115400323416,0
0.07514200951221119,0.0923540877805839,0.060471190350535824,0.062138816922362256,0
0.07016295939765917,0.08912910440071654,0.0701120292394001,0.060159403441443014,0
0.07967751139071672,0.11845241864361133,0.07032795167344344,0.05582214990899969,0
0.07422680434957322,0.10484412306605999,0.08063137433512549,0.06967127469000686,0
0.07297289047321232,0.09918789334022667,0.07141979035209509,0.059890279425838217,0
0.08531439546258891,0.098690895608667,0.06845449045119391,0.05597316718475474,0
0.07679218883430114,0.08824095162646303,0.06536389233158657,0.061122903584358894,0
0.08294694031913324,0.1067120692992683,0.07335255370666485,0.060505845870689724,0
0.0733327679636827,0.09104609190403963,0.07021268878254497,0.05862409499014595,0
0.07890232840729694,0.09268900883661205,0.07130835054224732,0.06419095562628353,0
0.07506764842009947,0.10106302730690975,0.058417992136558634,0.05569823552849967,0
0.0843352413689019,0.08707481134493524,0.09298698552765156,0.06093075377079549,0
0.0766797674417453,0.09229468344337141,0.07088725555917064,0.061920501827915114,0
0.07565052514439287,0.0980943279326942,0.06451623897779307,0.059091344153726015,0
0.08563434405006563,0.09623184984353177,0.06825371829034507,0.061923838788367574,0
0.08608697150443906,0.1075405243090183,0.06567444719448651,0.06695972543073628,0
0.08403356893984995,0.0814231204907116,0.06588763914020654,0.05805237020501562,0
0.07608096093523416,0.09239952429949076,0.0613912891767057,0.060996617566504145,0
0.07415298199340288,0.08674013849124326,0.06996336299806886,0.05498991506995693,0
0.07694242435457353,0.091739551124829,0.06094098717446408,0.0643373311383247,0
0.07868082567814665,0.08788512312733893,0.06357379907585477,0.06254355584284894,0
0.08282499125491995,0.09594636961534707,0.06918782100673007,0.06874134121535892,0
0.08562217255045186,0.0894171479243486,0.062160754072785054,0.06336326783429588,0
0.07957689936823595,0.08195248482917664,0.07398424530116973,0.06449972394537014,0
0.07287565839620225,0.07735053460622594,0.06858228897909864,0.06453868119947598,0
0.07110801951859333,0.08390357086093869,0.061618151881594314,0.06082597752172732,0
0.09005878443042119,0.11346786829048407,0.05625951741588116,0.05624846213791124,0
0.06495187548069505,0.08090558351941607,0.06553850965917818,0.05217093186687531,0
0.08631684557465806,0.09225809376007835,0.06469104727831297,0.06110687911903031,0
0.08651102176035622,0.11350970676705455,0.05931583030977119,0.05415732775483116,0
0.07976190597945151,0.10135159818132922,0.07529864644601533,0.0645216838998707,0
0.0810565692641444,0.11156627084326952,0.06040807220117303,0.05375553888896679,0
0.08617529763369168,0.10573572849898306,0.06266534335081168,0.060524723943918654,0
0.092768231035841,0.10075894584346101,0.05930387730500948,0.05681152646979121,0
0.07712648329153195,0.0955704939109181,0.06792538484359079,0.06665246729064328,0
0.07758586516560989,0.09173725096530787,0.0650021573612991,0.05802715690259031,0
0.08248936350658702,0.09514196993342351,0.06387771429019844,0.05835180198154386,0
0.08708839949100639,0.10620694266357238,0.06416962136952971,0.05684200708713098,0
0.08447048180250681,0.1164389636149678,0.07147489961796312,0.06482549257559837,0
0.08463388191173249,0.11183362773322773,0.07178802927057176,0.06337999137786274,0
0.07826690982515035,0.09918536999436156,0.05855072616107247,0.05178069587231775,0
0.08892913816141515,0.09133432300094028,0.06901115269790783,0.05778063704820186,0
0.08161138660336849,0.0905261181434634,0.05945451651512055,0.05620656581181552,0
0.08981688376870617,0.10007053673828294,0.07682184880101911,0.06307455845063854,0
0.08855364833023535,0.09640359605039048,0.06194050518092469,0.053046705002182976,0
0.06119934453775121,0.09981220230210686,0.10745184353472266,0.08285923419022236,0
0.05492748760965782,0.09800409650177046,0.14336212938500387,0.11777504352202006,0
0.057758591775847676,0.10228923613086176,0.13098397769003162,0.11099825164468058,0
0.06291216562414946,0.08302384802589252,0.14803123779871058,0.12427144488643825,0
0.052270632915326104,0.08907686787584103,0.1349267338272439,0.11484911935994678,0
0.059753493874999696,0.10010542020534428,0.11818308839080396,0.10755257766114472,0
0.06438667635547675,0.12759096993980848,0.14734756894515372,0.11734108018304848,0
0.05687779405061033,0.12864933324651695,0.13612283538319114,0.11132872715317073,0
0.055175952899331845,0.09471644254530513,0.13549366661624726,0.11214024389455626,0
0.05406355918322079,0.0940992862995102,0.13152832736383174,0.10396940167142094,0
0.05586618387956279,0.13746815551437874,0.15571512784397762,0.12100023243186399,0
0.05399426366623362,0.11414192854684502,0.12238245897994876,0.10440634082406614,0
0.05578400876330733,0.08071191932010414,0.1038416971480057,0.08498646971023882,0
0.05322199613506321,0.07598323964682331,0.11612131168360358,0.09673263944248757,0
0.056856256407264036,0.08527401765220942,0.10831482887412724,0.08807258279863102,0
0.054569118300662474,0.07868266208707643,0.12222946356933138,0.09481251673144923,0
0.06214340288813061,0.1085577241096014,0.09873050357075297,0.0850409788212198,0
0.059694581959340944,0.0922887499163163,0.09942213824507869,0.09992589958840524,0
0.06473239078370109,0.07761999635230345,0.1205057104744104,0.10198195153288234,0
0.06547811206199318,0.10300829333030984,0.11012449737819642,0.12089428171890128,0
0.059667275159813946,0.07888515482318997,0.11964564028072035,0.1170766786592493,0
0.05595888704145535,0.07756339425448408,0.1052522783889838,0.09823815747456015,0
0.06687261304082878,0.09044571691859679,0.11300337234326864,0.13642012801451397,0
0.057091965054211734,0.08963787444110356,0.11528007909931222,0.11796742597645425,0
0.06529093041295204,0.07819301326187048,0.11479024410542257,0.12689921990142713,0
0.061819373649950916,0.1143915667570894,0.10962862547259972,0.14011522309852006,0
0.0696858133683118,0.10142231243076161,0.11501491796174919,0.14044346969170757,0
0.0656754491260093,0.11381660203952249,0.14076373059125488,0.15004375061082792,0
0.06368094611048435,0.12951542785188086,0.14480071042064863,0.16326339705430895,0
0.07020211964180893,0.0950220320321377,0.10849037415802927,0.13190966624454517,0
0.06317242790640153,0.1040060900338133,0.11079658945514714,0.14389021906978294,0
0.06185574668613726,0.08492332210189922,0.0949597295221197,0.13219343730754124,0
0.0771068424844544,0.11002924361234831,0.09586684889992167,0.13746486973875477,0
0.058248343460038224,0.0874824376872914,0.10313086240213538,0.12813394568143305,0
0.05942270621369746,0.07974854530757365,0.1085295737203412,0.16074922785809087,0
0.07443034395029367,0.09374408486434128,0.09825595710815825,0.1322224638682135,0
0.06192500246899093,0.08836685032510211,0.09623525888704024,0.11936776381522707,0
0.057752789420118134,0.07441234257262934,0.11770336443477905,0.14415917375328072,0
0.06653372139812974,0.09284812888936979,0.09408413031347426,0.14293470446811482,0
0.07381276532279958,0.08538701241351473,0.09735553096840774,0.14454148462064687,0
0.06397510096460272,0.07501228037903811,0.11129632131104684,0.14278713965859552,0
0.060106294563210184,0.07710805433718192,0.0955115545615803,0.14076172771493278,0
0.06627244540595063,0.08850950742595907,0.09154738957817708,0.11732834470118336,0
0.06084719150948752,0.08744509633326536,0.13900871403109022,0.15670775754558414,0
0.054644328583181176,0.08145749127223911,0.09334513529338187,0.1325879292377475,0
0.0628674728817067,0.07541503258546683,0.11260702570579728,0.12310982893632424,0
0.06160037369178219,0.08574635940793142,0.09312622490548449,0.12203399224718295,0
0.0595532988019139,0.08138335368617726,0.10027676782212115,0.14328220335165875,0
0.0707626470900656,0.10009243232544521,0.11937522047757307,0.1600974303549406,0
0.06348477013392774,0.08436347240563032,0.09997745803555225,0.13474571749284495,0
0.05788189266408673,0.11232254056961612,0.10127076230135264,0.14050797398069068,0
0.057603113789521466,0.0765634790583534,0.10631916773209536,0.15592911207647367,0
0.07077903736199787,0.09724161957694641,0.09851899949709576,0.1152501374983492,0
0.05863703744976525,0.08082339703198228,0.11950718912804002,0.13455355903127605,0
0.05501580334339054,0.09425791731524438,0.11141394255860283,0.14281741116726795,0
0.061458596545895444,0.08742649120137665,0.11273088729949686,0.12866697358856075,0
0.058927492163453624,0.08699936780414097,0.10665621402317817,0.11185070697301164,0
0.056768229239411196,0.0799155241329707,0.09702657694625309,0.13090778447725404,0
0.05923823127500962,0.07843955432690383,0.10716622291903936,0.14693687981671882,0
0.058541450347906365,0.08289183443148623,0.09149825392367995,0.12722439521536977,0
0.06523109937416595,0.09188653965252933,0.12106150940228023,0.13675953283284883,0
0.055010340020016785,0.08044930311804169,0.11481254481831762,0.14875872098931928,0
0.06383812838388962,0.08380408690254153,0.0973624084536953,0.12559299649017328,0
0.06109787204339276,0.08945992522582016,0.10194267896582847,0.12460473510705948,0
0.07020829681441555,0.0826074196964484,0.11611731056332944,0.1378355115402143,0
0.06042357885551146,0.07026761198959697,0.10268011742589764,0.11406683602960085,0
0.06103034445588499,0.07713461701126217,0.11593349402975242,0.1328403891626024,0
0.06660398457574841,0.08924749826669841,0.10627277728902494,0.12239987402536033,0
0.06422481271232129,0.08046128204404426,0.10041394516018311,0.13691704336596802,0
0.06313837540021787,0.08454077342867998,0.10585313187223627,0.1254952318291116,0
0.06344227461169653,0.10717820434698389,0.1025341570863676,0.11435959272774754,0
0.05853447143616181,0.08782065240893891,0.10560389013977335,0.14029338986347603,0
0.07226735939250455,0.08178707005148673,0.09957581718727425,0.1278232659546925,0
0.06779618776140099,0.09617262950466918,0.089942893812042,0.1246851446120203,0
0.06302118613300768,0.09259366230743446,0.10771190951551646,0.16152170044404265,0
0.06272265013027091,0.08831164047623723,0.10139862091290504,0.12905061148915545,0
0.06724478299857277,0.07880670368553587,0.09698945898643437,0.1275386710314852,0
0.06554299337190232,0.09056185731127486,0.10936762777607047,0.14425665232654455,0
0.0639562698415358,0.08685164540182855,0.11730773942194073,0.1540388422254115,0
0.06419824018586888,0.07567666245316544,0.126075849220136,0.14299435153188578,0
0.07084350375482036,0.09032604686527547,0.09385917306991165,0.11740465173167641,0
0.06405968879568147,0.08477773407726359,0.10301757021157462,0.11756457955090352,0
0.05806995197874469,0.0842148327219779,0.10466778153941687,0.12350341440495793,0
0.054262795963668724,0.07022076342081991,0.09122712823319098,0.11462897301853586,0
0.06587075208214184,0.07540759511410003,0.09942116511671172,0.11483002706217932,0
0.059124861135929636,0.08589800657545528,0.12004964694193282,0.1385474137618948,0
0.06413865786865429,0.08652069949164974,0.11305333450779459,0.13448939286977016,0
0.06923205810539054,0.08845863780926413,0.09525285885666095,0.1153466931616859,0
0.06931615026932841,0.0750333351138978,0.10325767125214008,0.13071636677302165,0
0.0633071467364958,0.07482766892764432,0.10426791096791921,0.1408871391652015,0
0.06399298841730534,0.08998151974963743,0.10873809295831233,0.15138313698863162,0
0.057801688435903976,0.08043666302566113,0.12248474624185823,0.1573219351086302,0
0.06842741633845376,0.09268989637420615,0.11084012468996883,0.14642013003879975,0
0.05496824856514907,0.08460273369363287,0.10072272529240346,0.13035595550624435,0
0.05981807751137548,0.08380446898453471,0.0951303853531019,0.1390059876826099,0
0.05977586958001301,0.0847291415554517,0.10155070770714791,0.1436112802174595,0
0.06136001572141338,0.0820547922304674,0.11674869572425779,0.12377480940144155,0
0.05799608582842937,0.08388856805955817,0.11074170767616572,0.13943627274262455,0
0.05879118901256519,0.07337454602551559,0.10343973670414204,0.10319069335991642,0
0.06629824641739308,0.09130876027915256,0.09568104686266701,0.11850656410447638,0
0.05254593632994137,0.08492474904196662,0.09441743241425891,0.10830998660266156,0
0.0548984382571151,0.0840409700156582,0.09736039930706523,0.11298840156045907,0
0.38902706743180226,0.6857956442702449,4.322559432291588,1.1840677325289524,1
0.48380417818057114,0.817708695972732,4.193246138572356,1.219940492403629,1
0.4181207344384213,0.7981673482967023,2.3333036235605453,0.9326840464982594,1
0.3189253115697395,0.8087774877690125,2.4885241926279003,0.9419069961011971,1
0.29656293799861744,0.5705437525625491,1.8932533992086915,1.034266829891502,1
0.373637811014543,0.7567106069716643,2.6353848391592973,0.9947231334661224,1
0.3594135687331147,0.7964782439072637,2.6030437398662625,0.9759357051087351,1
0.5473380143707377,0.8793131926793315,4.500347954282263,1.1266493973434022,1
0.5683252434758386,0.9003469849474035,4.359420203917308,0.9861778868429111,1
0.42123529798039194,0.7182308834885857,4.22954568606558,0.8011935718782495,1
0.36807287109850345,0.7501223779203171,2.966528287440317,0.7619423016349934,1
0.5010604063297027,0.9021455533997648,3.4043063281112187,0.6848785315398891,1
0.47330098715930113,0.9639070261440372,3.7944062089104142,0.8028249059429817,1
0.5105630816915793,0.8198114127640295,3.417785494138221,0.8165292178870057,1
0.536895394386275,0.7154944969721247,3.5179883577974,0.6314182782787616,1
0.4962836854214517,0.7326336692862833,2.6398552806353512,0.7593956097110035,1
0.444930013300288,0.8793628220501494,1.9473605675986991,0.5313235111287,1
0.5815881874506331,0.7950740472721773,1.7515940534520913,0.7742635490430613,1
0.4771349046063685,0.7685560939488578,1.9806300940699808,0.5510550348550676,1
0.5483759285527848,0.5838079380618517,1.9216848857662499,0.764881454965066,1
0.5876313929055009,0.6396204434102635,1.7309809964610057,0.9949808310834254,1
0.4142369194566478,0.8084682309774214,1.8321746730442776,0.836611844372602,1
0.5194582362255747,0.9109455335877616,2.080872227183437,0.852240517163326,1
0.512844263761841,0.6947897669415168,2.235510730022191,1.0706497694206911,1
0.5031249791344055,0.8992901326056293,2.0505820008926072,0.7856987542234052,1
0.6170085388120359,0.6745020418256724,1.5945223003191589,0.9465237339614809,1
0.5760148848338855,0.5936451999539202,2.0704997908729665,1.0204047112608337,1
0.5775294953201482,0.8477235624376955,2.1239106252838296,0.7830788947362979,1
0.5519185859695216,0.8192979700927694,1.9569804564310405,0.7805076267186911,1
0.43759879890948555,0.8461304352369167,2.1469215309358987,0.9103651031661079,1
0.46944385737966,0.8206070396997068,1.7918078805081008,0.9407145182450303,1
0.5209849642413704,0.8778665921332056,3.152909506522098,0.9612107085274563,1
0.6502520171729929,1.1449998621833821,8.354132216152987,1.5367602672035734,1
0.686469198437276,1.1359955360998253,4.565432328997258,1.0985953284962786,1
0.5972025415417119,0.7550266893992914,3.6345607572351,1.025535037772594,1
0.5539229202753501,0.721102669599887,2.5896507509630085,0.9523989642400418,1
0.46336187978094395,0.9732940607659869,2.5848353644859174,0.9629063470724777,1
0.43791500344243894,0.7116902663255062,1.802470293596873,0.8469228361067435,1
0.5022953250955015,0.6895679344230315,2.107481962291584,1.2041270032558717,1
0.5128133731882109,0.6442601776609093,2.0972495536416305,0.7574039622615925,1
0.4106385703711802,0.5792171592054172,1.316457899197877,1.076254882145603,1
0.42522918206846066,0.7251574567200358,1.2677204161281397,0.9136358857864204,1
0.5022647312304681,0.7222951003267462,1.6102949981830896,0.849443802654555,1
0.47543101096668156,0.7795197811360295,1.3400002685272383,0.960628041230167,1
0.42057361760557316,0.6534457497448587,1.2158340158697414,0.8280197534629773,1
0.44828748163021326,0.5903827229493672,1.5333808919025957,0.7640277363535778,1
0.4603165902363242,0.5543850130860962,1.4464800679916432,0.6745239482529225,1
0.4166525895521199,0.6634315346951849,1.372133413906973,0.7226825105960186,1
0.4500654698378136,0.6720778054884446,1.2777062704706652,0.8919172333041799,1
0.421236478177856,0.5776381128627747,1.4221343522116279,0.8999891720205494,1
0.38191993748592556,0.6250595015555521,1.4468279522243677,0.7022034242050842,1
0.4623001691385527,0.5241376659904012,1.2811837853675296,0.6652288910197218,1
0.5109715962427647,0.5857444706936762,1.2003899065592991,0.8299491286306517,1
0.4609952066050815,0.6922660179717128,1.4730243791039281,0.748548784260366,1
0.4854923462888457,0.6633925010767746,0.9898087836226555,0.834427452040641,1
0.5201055012080319,0.6554726881796848,2.5761160999616126,0.7629401338157531,1
0.37814894430569873,0.5909940242363976,2.4527846149894375,0.9269250013159172,1
0.5084229654702834,0.8069208896130876,1.7945931117229765,0.7106255382582359,1
0.4380261585594487,0.6228620057934405,1.6869288229877788,0.8970365991584908,1
0.4107467769394277,0.7177682728548435,1.8919908221265727,0.5991381791901489,1
0.44685457359215575,0.687825454264572,1.9745730013676392,0.7727644055431441,1
0.4914499984796385,0.6796990976480846,2.0664899860104353,0.6451116491674439,1
0.4196263228484529,0.5511649737986857,2.3290738081461906,0.5160779284094505,1
0.40402293334184314,0.5844529648012841,1.8565754883156398,0.6811934962242501,1
0.4536245410053192,0.6166417576984771,1.783285401222592,0.8205908824802719,1
0.38034369471594326,0.7456517110071964,1.9806890887294015,0.6213516314561234,1
0.5161429282952451,0.6460855452132638,2.2927709629304496,0.5362785287116543,1
0.5175438789799909,0.6060985206325732,1.8170760204497889,0.5476413419062117,1
0.41302825865162734,0.715275655973426,1.6276129165976652,0.4157267239768267,1
0.41904908462430496,0.7036158621830274,1.4750382464212888,0.46848383092910595,1
0.4536169459821251,0.7957180365347769,1.7249538166578138,0.5267811600325342,1
0.47238535275675925,0.8232171835683489,1.7449586118508076,0.5329491098671212,1
0.39124996413291485,0.7316794164376687,1.9072951442376043,0.4905963019415845,1
0.4557494541596591,0.6963799258377414,1.8662152890618335,0.5227441252982716,1
0.481302835314104,0.7146315471100624,1.983035573374313,0.4925964330651584,1
0.47816665468166825,0.596948005781024,1.9043370684020018,0.6187934993634753,1
0.46380763506999967,0.9347880460756807,1.7931155975605442,0.5232667845318184,1
0.5012418985782686,0.7156167996144415,1.9994886343971532,0.5592787183906328,1
0.4603480734030441,0.7865717197436629,2.007730616779182,0.5095306195851249,1
0.39919950815857946,0.7739346131455973,1.8862273625316623,0.5228800262100443,1
0.4288515974397881,0.7229844848820569,1.890401766827839,0.49830810160611344,1
0.37769144510505,0.7720945100752713,1.7452295372528193,0.4972709818916767,1
0.46480473956829943,0.7003242418447673,1.5792128217670025,0.5935689176119181,1
0.3883962772116353,0.814291966393206,1.5631520179046827,0.4054205343527796,1
0.5266016870298608,0.5438670585773666,1.8853126424331672,0.5788519569207325,1
0.4793556378136859,0.558144172042217,1.5537924639543168,0.514816758705392,1
0.5256972366067105,0.7704196054245896,1.591072394377655,0.5809051432579913,1
0.5062211083014045,0.7552859326682098,1.8311376844614686,0.6497930525908101,1
0.4859924517918408,0.8005132165084496,2.1169026638084976,0.6354057187773938,1
0.4277593885185781,0.4941696469018442,1.8098127635792378,0.5447926525201094,1
0.36201762177222885,0.6845006745493479,1.5998275773752821,0.5585612646239025,1
0.44950406436886675,0.651034048738404,1.5441160485776575,0.587540227432493,1
0.48759626827504005,0.5648457445043816,1.702705814850057,0.6112675685639208,1
0.42551878047659875,0.60441739065347,1.377817027091833,0.5466254063090945,1
0.3601233335288301,0.6413559611180926,1.6009704388093653,0.526481083491289,1
0.4910582142166936,0.636402393718884,1.679471776719769,0.7133241596209929,1
0.4324227507625558,0.7882301955783466,1.7901330501519523,0.4830865704616736,1
0.41660138745975295,0.5916263430355732,1.571368822475129,0.565389843083225,1
0.39561972960452996,0.555711589921436,1.353731953634974,0.49143031839459483,1
0.514984143094801,0.5702581611590267,1.318747016346834,0.5987940864292652,1
0.3585427948515342,0.647026709078013,1.951545188482706,0.5373366359137324,1
0.5084694170428478,0.7717963714454185,1.7844333748830519,0.7769823669666013,1
0.4044371413137591,0.5339289822226481,1.7191443204333767,0.6485485957132443,1
0.3340459196849266,0.4640328343323438,1.9630069584290377,0.6322640353665298,1
0.35835934525087565,0.46977867668263623,1.846994171186486,0.8473880314289778,1
0.31942823518447006,0.4892537041024639,1.4907417562079388,0.7499169541756608,1
0.24636274897796367,0.36372473115982934,1.3410050691707556,0.8117952004025264,1
0.22789195388025207,0.3628126481035662,1.5208405339957114,0.8494446679550346,1
0.371137031019327,0.4638062271788951,1.675142525914966,0.8653951129216638,1
0.47773832964294916,0.5468908599803238,1.7781713194580784,1.4121291037915535,1
0.5377706500141082,0.46259768367171306,2.2271882499550384,1.6048810477540034,1
0.4418503559492588,0.6140783467881445,1.4969783342031284,1.5844248977146138,1
0.44040992846716864,0.7255785540728472,2.4629375156231466,1.7250794556226396,1
0.47047096980330316,0.6482764824030203,2.525554126781196,1.5135924778972183,1
0.4240216201847739,0.9162362895360188,2.0001059650989736,1.4677867934861568,1
0.4726070520071684,0.7158434893103429,3.078275127407251,1.2730656056944305,1
0.46458149179789876,0.8404512304638907,3.7076959256107482,1.0951091141371296,1
0.5959577006070643,0.6916332474055804,3.636200122753374,1.118471674298955,1
0.46027886895507963,0.704457167163643,2.069751274515422,1.1695601153001716,1
0.5315377241448965,0.673681044064486,2.5141687901185334,1.0846188274534552,1
0.4896963940107933,0.786341919167134,1.574367252691704,0.9837899475691779,1
0.38105382394462434,0.6401670180796082,1.9042645308447534,0.8910050815332482,1
0.38388233026565716,0.4692098996413465,1.3924233177894487,1.0383745870774248,1
0.3671123567413909,0.5067593127562565,1.2573215715158945,0.8235216308331982,1
0.33596710927740125,0.530769972172621,1.5485255012624994,1.03110856000488,1
0.3067974099938076,0.5132673073646372,1.289365104126951,0.8261237715483916,1
0.3698104336009001,0.48902422632558346,1.3114004295466906,0.7168305950103125,1
0.4114733459925025,0.5118025282199534,1.826436056209019,0.9387694756807323,1
0.3918271932424043,0.40507541102835914,2.0096282506987193,0.8413043657903101,1
0.4573398995596012,0.6369685821551319,1.7631659948964955,0.7995863811273506,1
0.3585661944474875,0.6312943279886675,1.8709449185578633,0.8940246090692707,1
0.32802804392146173,0.5146898871756861,1.5196170662462019,0.7747484277038824,1
0.2637121792445095,0.4474227273601066,1.1875187821510427,0.6872991429638425,1
0.507990692655094,0.6264785472191181,1.5516536993690975,0.5685056084754807,1
0.37262049794612156,0.6188710535457124,1.4555527030529603,0.5328849839371407,1
0.40214265821904144,0.7719099660336286,1.8973033529332761,0.527139068769301,1
0.47919766466981734,0.700187996788474,1.9639275506810263,0.6268910592554133,1
0.35974178489989933,0.44495504033580574,1.4790358440410196,0.5202903559555228,1
0.3363994318192337,0.5286567769114108,1.314565670234031,0.4698606357549875,1
0.3197633522082116,0.5944557957032733,1.692383190339861,0.7192080441684031,1
0.4251435795498279,0.8505759196153483,1.5104187958554813,0.7986719374787922,1
0.4016821374379587,0.6634385817749661,2.5515851017319946,0.7615184928198516,1
0.4732362972215972,0.9481805179527487,4.382123326785522,1.0938630703344276,1
0.3510540990982398,0.767502629141313,3.2301843803235903,0.72831520227214,1
0.34213071132250883,0.5782572793511769,3.4541234760867376,0.6967379029056678,1
0.5063562241343289,0.6484409040539517,3.973836895210228,0.6722282637446496,1
0.940093156479892,0.9631851047552253,3.231793268202621,0.8340872827922579,1
1.0080628675903958,1.336382299110223,3.685532730256153,0.7875677225803692,1
1.0547983367484715,0.847859692337343,3.191838625933861,0.8766106842067646,1
1.2335455418051293,0.812160200301254,2.1633559779872416,0.8095074971347164,1
0.9623393046036639,0.8761947631358206,1.9607792840707496,0.7881736058396067,1
0.878547010221269,0.7305050797861038,1.8603145818408806,0.6360736562600346,1
0.7449728468072485,0.8477902965360192,2.012988510948988,0.6384416895650727,1
0.6832704985566888,0.7303014018179658,1.7303555134121023,0.5790367333387807,1
0.7368520239801994,0.5631325950918618,1.4999513458975724,0.5357300687819144,1
0.46515967723393803,0.5484011962826334,1.6516251132172706,0.4185281155578538,1
0.6164885297443223,0.5267772249645545,2.4175703406191853,0.5114169812209078,1
0.7362575444225038,0.5048350108732945,1.6147666785620447,0.41006484990972314,1
0.5852985657592327,0.515982702049024,1.2541521039961434,0.510080650376287,1
0.40248985721324737,0.45171623792654925,1.1068747585586909,0.3144201630792405,1
0.6113612188116638,0.5550337396771375,1.493728752928681,0.43202333385006597,1
0.47102202669042936,0.5619892690197408,1.2408495748959278,0.44936870841501375,1
0.6361827008182616,0.5763173666053308,1.2549916825370728,0.39952540145432613,1
0.48085636715474844,0.4957633908968658,1.2956681716304654,0.46674308638423323,1
0.38835040479083677,0.44111981718447996,1.0360382810661815,0.41278762139755115,1
0.4523922724509161,0.49645770717190196,1.150760061422535,0.3691798086216701,1
0.46580073142720824,0.4353142446910636,1.044333741050418,0.3936772317736187,1
0.4245285594960644,0.5382086943202349,1.4351576083477728,0.4418010558793543,1
0.43776954413955715,0.45296419291418155,1.1451935001398224,0.43055382762984024,1
0.4129529160695333,0.47652733116135915,1.505178158931592,0.3697578867755059,1
0.42733343603478474,0.5875322442171368,1.1690687978213905,0.420822735271669,1
0.8071126839859709,0.6398630416375215,1.4021878139602617,0.45552395941255786,1
0.4067123730244138,0.501947637483152,1.4333089865615618,0.4318588154383337,1
0.4167600659226458,0.6194663637665565,1.377091849252271,0.43457927182397404,1
0.3496473082978783,0.5803968180250533,1.2252795658274886,0.4323349799103302,1
0.3844813307337245,0.5388459847463187,0.9868867751654656,0.3705425182686926,1
0.38684136127995283,0.4260392659652234,0.9765272761417357,0.42374068108296287,1
0.3976545981024934,0.5951856854239004,1.0846102980267263,0.45430324393753485,1
0.33330743026869836,0.43568351430970115,1.1418110994520765,0.4067611660435708,1
0.4272860627495971,0.40890889965801125,0.9188468222224355,0.3883121316706513,1
0.36230449574972357,0.49287752779684657,0.9778736649228561,0.4062793212731551,1
0.45097702141439183,0.39186680247881567,1.0155238083698868,0.3606613872506781,1
0.3992118894343874,0.591747706854114,0.9870406605306498,0.3746305863182357,1
0.47363739935867166,0.4642360434865639,1.161301165760719,0.35069941875761584,1
0.34016414566032527,0.591225435213972,0.8077379355042783,0.34460558665616103,1
0.3463742162130791,0.4125034828108875,0.9566471389334043,0.307050063809836,1
0.3886983528086893,0.7437461077418581,0.9406130911731998,0.37012131636637524,1
0.3841458331329379,0.43559625142050945,0.8500181426235895,0.29851028056277734,1
0.3277429565357208,0.43117056431998146,0.9030635491926178,0.35752522102812445,1
0.3357442724640486,0.43577727137218386,0.8472729188020384,0.3690726407031963,1
0.301979480259291,0.42357649977084383,1.306030648171917,0.39625659831213855,1
0.33280762630263994,0.5816085518571327,1.1789420687531276,0.3918548311063445,1
0.34214344673403974,0.5394539508189865,1.2789128483069578,0.3681335873840078,1
0.3812292079419102,0.46899977822564853,1.8396335996817743,0.4231737288586633,1
0.322437898137813,0.4950503033553714,1.2881127944407667,0.42263818356498367,1
0.2896752829944477,0.38262321479809547,1.0939683870846322,0.3025441108010228,1
0.3275154822528484,0.48116770843134626,1.0152212706855928,0.40584309254444106,1
0.337854925879629,0.5120450347757298,1.0424163394448889,0.28437332453373615,1
0.3919435017777798,0.44733656504530667,0.9183156655631696,0.38944566849472123,1
0.36719198640837797,0.5171871693364593,1.0661852762718822,0.3608382960822327,1
0.2718229091651252,0.48962985202886367,1.153853306907637,0.37395689174262925,1
0.29366491779454507,0.453189208327336,0.9600400108535527,0.37226391226118355,1
0.3072541431969488,0.4756911485052849,0.791454909023544,0.3636315456404401,1
0.5203223791636363,0.3822094444066482,1.0321718545866154,0.849494882920698,1
0.9292801089463035,0.8198435078562308,1.8635851828458543,2.0888274567721017,1
0.7730856531598435,0.7854576924328157,1.6147309995999402,2.049126675866398,1
0.6803758941714965,0.8254726518537719,1.9256064259336274,2.0293525107575854,1
0.6540449800679268,0.5610238748567374,2.0084808437044686,2.02512656827045,1
0.6508461067271007,0.6244757594082724,1.9694632007823303,1.5213315111934504,1
0.7085086857682403,0.6852743959405171,2.0211507722292317,1.8342310068717766,1
0.7180961075148822,0.6557769092700022,2.0346040052909182,1.6290144740571268,1
0.836877290128568,0.6853362787804376,2.0757338912797985,1.7017438341448279,1
1.001536119754783,0.777899312240429,4.352072606245153,2.355970627147428,1
0.9404128923196914,0.8070115812268117,4.301831434049407,1.9952638582381361,1
0.8107657480500142,0.6428448522914201,4.590625658514626,1.819369531069381,1
0.7642568068934155,0.5761864497900637,1.8979531787599446,1.8291541605231978,1
0.8303993031129151,0.9135988626113318,2.8650698380570345,2.1085199430997794,1
0.7661045915314585,0.7770212983836728,2.260924900613301,2.0490651677459706,1
0.8545509213433262,0.9920456119393921,2.489947088798332,2.6832030880139537,1
1.0072173947665044,1.347707891748576,2.298972732313664,4.538181057411433,1
1.0623245030799635,1.0335423000567088,2.2004549175448345,3.243448287265564,1
0.8815613707326115,1.0377449646374555,2.15832508279797,2.5092054675945823,1
0.8459791872318372,0.8755757900942368,2.0829796797926865,2.3234329378844394,1
0.7836619575968015,0.754508948267468,2.4229623492807777,2.356053709211959,1
0.8495204678294918,0.7531647003408958,1.4859137366053343,2.507208457917663,1
0.8221577148498841,0.8850608715826566,2.4671421438617114,1.805913939147181,1
0.8443739843416842,0.9262980423671564,2.0938662557955867,2.3091490548347906,1
0.9507155418520293,0.6698636044397603,2.167765510795744,2.2879077287820966,1
0.9808966802731929,0.7936531334735341,1.739691628621146,2.053080719214467,1
1.0065838775976073,0.7688108484520754,2.127219607224369,2.049683320077596,1
1.0198908903304245,0.8220155778036677,2.2019843605318643,1.6029797922366742,1
0.8029898853630972,1.0099088998749897,2.8325566573373924,1.7725518304251275,1
0.8661646238323156,1.0239142672545394,3.312052303704578,1.8956959922295242,1
0.9955065207591272,0.7844740117920307,2.735318030785361,1.8499634013682449,1
0.9222743343348767,0.7403591109227234,1.9951176116705283,1.444571345369941,1
0.7740890231345969,0.6371965232629818,1.4422567327026485,1.7077544600175019,1
0.9131260481801771,0.8414160476036607,3.248075022983024,1.695938783697132,1
0.9393824916512318,0.7804489826537832,2.938476131998796,1.4562992400229369,1
1.015934737680376,0.8076300512172082,4.240742776531262,1.5768558349352297,1
0.8701252586506855,0.7515826299478111,2.809278501358631,1.5728546975641748,1
0.8825968926314538,0.6908995160121776,2.2863232074043807,1.517662397236307,1
0.874049021075232,0.5945455767484636,1.7274149024349885,1.4268313913374024,1
0.9087007556617661,0.6554514382510397,1.628370010863375,1.1619512323902648,1
0.9352000527399897,0.6642630894661199,2.3431740939396906,1.3111153128354796,1
0.7735591969128749,0.644611980434751,1.7759023709211217,1.4332056253977463,1
0.9283358683717907,0.529861744353409,1.719063875189277,1.722930737542488,1
0.8618468237268964,0.7575128879046237,1.7159097521521929,1.382956091843937,1
0.91456740695119,0.7343419575980668,1.673024073919463,1.4677090853106367,1
0.938987313032642,0.5826539390621529,1.9498148850898922,1.4516078403586565,1
0.707802625143676,0.6027889559719611,1.5855536811839845,1.6830551498494692,1
0.7641438791030104,0.6768556964374322,1.7840020195310216,1.6225966309940782,1
0.8449214824545965,0.5436254279556739,1.447322533631913,1.2848016845574444,1
0.9842144205388209,0.6796313053114597,2.021382305160121,1.3900027681486566,1
0.860732443942527,0.5832772933071856,1.781352431029731,1.4591240295481318,1
0.7822248906533692,0.559979996765585,1.6280175430109134,1.5214704396972294,1
0.9065680676562288,0.6821319236902575,1.7812892598413175,1.5312886035234896,1
0.7628054133696064,0.6627600297034335,1.4393416000462218,1.227830466869886,1
0.8203893723783617,0.6378098257839429,2.1269667584462018,1.669168679183845,1
0.7970512781936498,0.585355250764309,3.188274709554065,1.4355465894273436,1
0.7941970187091775,0.5698464207354389,2.259550325934266,1.2203536390478489,1
1.2306365822322476,0.5971074736872205,4.445679263118133,1.5997382568333933,1
1.4214772970901748,0.8231353334535219,4.643283259726557,1.5170884133760734,1
1.1053897173265466,0.6827126967713171,3.7288616426705765,1.561722729550882,1
0.9273827616703175,0.5987362141857068,2.3806640126299805,1.4446186040475786,1
1.0147258332823301,0.6498085082452866,1.9440408383585905,1.192318265882194,1
0.9686201623388714,0.6144703209641678,1.7196553068853675,1.3948923667331885,1
0.9688190082426984,0.6041732884562251,2.312649361424824,1.1656277926143044,1
0.9544713758364511,0.579006047442756,1.8460763544575172,1.711100961660582,1
0.7495600491556594,0.5784104802560571,2.048046549742849,2.1371239927804746,1
0.8344582299483595,0.4901222351932569,1.9147834131246337,1.999689994884842,1
0.9261205528650632,0.742054937120387,2.1231728551430464,2.31356177382868,1
0.7782655359785928,0.6474527187805454,2.063782258524273,2.183026606911363,1
0.8296546632205362,0.566008334780112,1.4689730023611978,1.7687342500228445,1
0.9067297480207896,0.5183083227255731,1.5935970832858204,1.8272848354780014,1
0.8706008455281091,0.7148483539516063,1.387516568237443,2.2080778262664804,1
0.8447159469925368,0.5588895674282034,1.9246765258437988,1.9993870714026054,1
0.9881527351977467,0.9410557508306117,1.9075636358350039,1.6824100313268049,1
0.7732307475021781,0.7164673500436024,1.758361055543455,1.323155365690959,1
0.72371506762043,0.6583036484607907,1.4460027988101207,1.160554375278579,1
0.7866903892127022,0.5574067203285155,1.5929065659201158,1.2720498698119969,1
0.7653418095023645,0.6752446056799944,1.9859000699210947,1.3302771256823729,1
0.7171868201306202,0.5716071269311356,1.8302156273049466,1.364358636705785,1
0.8461345753085784,0.5771161837703155,1.6074295439719115,1.4382607724795875,1
0.8132066806210372,0.5686111674994251,1.8509365051209246,1.2850485181666975,1
0.9292582402147483,0.6385751710182482,1.940326188629641,1.469798007867663,1
1.0663370824003227,0.5318229973870561,1.9710435886116668,1.2472762910871258,1
0.9185833632745359,0.6932417882784899,1.702923052879064,1.2994610516482132,1
0.7937286110212536,0.5184880909803816,1.7434303204479575,1.3928433863982346,1
1.1961171182488513,0.5929247248825626,2.937492456065159,1.106595349704112,1
0.8957010036246418,0.6861389351403047,1.9759616489291334,1.675918219174148,1
0.9530692758423269,0.6441627404899346,2.063719571112014,1.4068478245568476,1
1.0356939862270678,0.6620850794800321,1.5814811685680685,1.5254633330365233,1
0.8717227050906354,0.8407910164649668,2.0035335360110182,1.3585558045872848,1
0.9545367610382957,0.6845499432152449,1.6280722015897946,1.4257480461156398,1
0.8366117896413471,0.5639247081474786,1.8890293098351782,1.5578491911132066,1
0.9713492577841185,0.6866151566410008,1.6726363258824404,1.406241374847127,1
0.8948645573604393,0.6296720018664771,1.9383890091719498,1.6525726601869068,1
0.8866577411535915,0.6190417681794107,1.973562881094642,1.1972728540041564,1
0.8754446058964022,0.6495206768762357,2.0165539190442665,1.331754740526901,1
0.8181421386060862,0.6911940352941047,1.9709009757839009,1.5963499340606229,1
0.8866911272033979,0.64572659325349,2.351372700011076,1.3653365176358816,1
0.8147803858024334,0.620064918490816,1.5684771023778692,1.5158328967801813,1
0.7649655314867044,0.6675200901838912,1.4022791226084204,1.1294627329304723,1
0.9387614846527952,0.7170321388558771,1.2967790690038445,1.423650922804003,1
0.7531304275984263,0.5997902201232727,1.1517367613532976,1.8055976369308258,1
0.7254630479480161,0.6156952249199976,1.071140455911443,1.2119217768085884,1
0.7830331494735466,0.6604747885925513,1.6536711102547264,1.4537910526306663,1
0.7797894667104291,0.7056156024019924,1.7444019551870629,1.599929704781167,1
0.7153550883818994,0.6622249375500093,1.8869318489506033,1.3497524469306357,1
0.6140603596220384,0.7399526527734961,1.8241014580764385,1.6515453719204742,1
0.6862741268598918,0.6278781164500131,1.6910909823619285,1.9082310282627737,1
0.6426991659010114,0.6187723888173458,1.345872222074131,1.8653132484979513,1
0.5894982820303127,0.7442724325646964,1.3234865503455762,1.6689462077622133,1
0.5613354873627785,0.7070837064496118,1.4838899701123225,1.7687824363540496,1
0.6096545807306962,0.7598585694376025,1.9081358828665855,1.8563417044429964,1
0.6735538825980102,0.7452259115901436,4.046697874842077,2.417107766998444,1
0.5908003777088908,0.6985628829653743,2.3404930774462374,2.3357327368521004,1
0.4885438508523533,0.6051389042073181,1.968718124919736,1.4600749712362397,1
0.572246818231935,0.6076248152058179,1.3619636354476095,1.6884883911330681,1
0.5187612542882002,0.5544550170456436,1.3372052407615367,1.6875495886476308,1
0.5504979250695373,0.7076901438571394,1.4839821372719997,1.7660666745499503,1
0.5804466544462288,0.7720909431349955,1.4202490821367677,1.9748008739622955,1
0.6353258651480548,0.7428368933796459,1.5974971964262223,2.057970850949228,1
0.5741524949356581,0.5439049083506668,1.4066215477399213,1.557488652232075,1
0.5374679663687808,0.598701534628138,1.1389750681283253,1.842016120942729,1
0.460141293873752,0.488016247559592,1.8706306979514047,1.5744606543499917,1
0.5586445263639352,0.6381146995982497,1.9796255479933886,1.3148964146061795,1
0.6515425170289038,0.7135372608812984,2.0135791612596106,1.5748317025081098,1
0.8180726532178022,0.7237228970109174,1.9996365560298146,1.5769733568107969,1
0.6910629109721778,0.6262696871124803,2.1061591147604846,1.23751915245476,1
0.8166023996084901,0.7406711351078245,1.695781941662089,1.084540156325839,1
0.8796748444057098,0.7749093615578153,1.8584899401768182,1.4852784339010685,1
1.052755362442612,0.7371781469387895,1.4765655946882439,1.1873306120879616,1
0.8159555352020748,0.7706974961599622,1.9964037524979172,1.0927492545159763,1
0.7169189816828281,0.5635767675198416,1.6119974089956142,0.9644470955031823,1
0.7149303212060484,0.5962638005426022,2.0047178383526902,1.1796544750291815,1
0.6102662783294452,0.5738299518029951,1.7028323404655736,0.9030044212750474,1
0.611763412478821,0.7518983250075637,1.810170165845272,0.9343450817398671,1
0.6521623848342993,0.5272020584337421,1.5285059134153034,0.9357350477288169,1
0.6825289716216156,0.6865345749237926,1.636912994571211,2.0724047213840535,1
0.4907033518069648,0.7187415613892336,1.184471074986557,1.4767003093448539,1
0.519225974231077,0.7336349921402066,1.0059950411853704,1.0930530706892616,1
0.691065727273506,0.5461636545376961,1.0705369193118208,1.095479932071964,1
0.6653033881229036,0.4692585697280676,1.282020908081246,1.0903623757845542,1
0.7125395317026993,0.6567933194309227,1.0881605269514538,1.0166101224044328,1
0.5459308018348882,0.47103741131945265,1.174937306417127,0.9064698321705373,1
0.5924550596632515,0.47560507994530826,1.1771325610646692,0.6469738680900041,1
0.610218817864827,0.6770635082594721,1.1153394478820067,0.761260515906149,1
0.7448767637048418,0.5491810962266233,1.0231104647962788,1.090978710085307,1
0.7482992970166771,0.5044576119969393,1.2994692747862788,0.9902149614028698,1
0.6237019156933493,0.5545366374445331,1.0316426338196032,1.3405715865437848,1
0.5562968004391226,0.6896042628218055,0.938298839097462,0.7930228597790425,1
0.6649650475964476,0.7193875417447322,1.2049134520826514,1.099116395538745,1
0.6062687172701178,0.6715644356912553,1.033228267559348,1.1889672494472319,1
0.6810462470972114,0.7143329276459752,1.0840590552114768,1.5367100108691005,1
0.5493487952794592,0.5890028957486335,1.3494621349775204,1.6122454298477242,1
0.6873913752863031,0.48600831255866006,1.7192311076825602,1.2414881282392456,1
0.6529446397386294,0.6938172459631073,1.8068673790939953,1.646817616290312,1
0.6627052365340714,0.7931277155007385,1.719222009576393,1.0072638699789611,1
0.7187165257427371,0.6832604586105848,1.7091182587766591,1.4658016095299788,1
0.7325073173239667,0.6713932742213182,1.965808499723552,1.1018403908351124,1
0.5629338513165772,0.7682525417728295,1.6570670373061631,1.2547730540555133,1
0.6418847048966254,0.669075798605258,1.262469211070471,1.2251513725955703,1
0.5874679138048693,0.630633978521626,1.215215233925559,1.1735314731625628,1
0.5594955939115271,0.5763959973224124,1.5369568407380125,0.9350782512898361,1
0.5935329391317413,0.4655719912487784,1.6074020216915037,0.8612793193093404,1
0.782737975063583,0.5863856494230063,1.5896415241211999,0.8613512562228883,1
0.5763929828680563,0.718371515415377,1.497955702155921,0.8000247539393073,1
0.580569223378388,0.5400376668089694,1.2517114542971346,0.7509621986216701,1
0.5939910437516993,0.5247524595073624,1.0928161391012623,0.9039402245641728,1
0.5671733821857815,0.6415383416898643,0.9398006084222261,1.0648667033980028,1
0.6033287344743399,0.5755778044841019,1.1466752510867069,1.078427233768855,1
0.7691290037645894,0.581079887286159,1.3843718998457533,0.9476639609961841,1
0.7004008264804192,0.6603830208535454,1.3335343391594876,0.8974512535146711,1
0.6770480701871637,0.6207943445947685,1.1484740286568351,0.9175426303085593,1
0.6931774272831678,0.5283794846380503,1.6006673921950483,1.0173482924449577,1
0.6991195936063409,0.6552657848038056,1.9580784792401225,1.2119902093322994,1
0.7703415011401203,0.8397883967753077,1.5065856013779655,0.9210777381554011,1
0.8095996861949173,0.7911927532264023,2.0428965948895588,1.1896811791508253,1
0.736362957097344,0.7673550316658152,2.007100922951516,1.1423251285514506,1
0.7156755071214277,0.9636155999550511,3.0730053570720326,1.374575472812107,1
0.847066461791105,0.8203668770389244,2.6454894460790204,1.483946093746068,1
0.6095689580462168,0.7743945226786123,2.453324346023714,1.5892841142554497,1
0.762081041418983,0.6925778437892806,1.4511070415535314,1.1175681756528155,1
0.7314897212770918,0.6211482099385829,1.9335579877851186,1.1409691641112825,1
0.6673974414329418,0.5447480382790275,1.6253900410695985,0.9813879555592331,1
0.6746914855382122,0.5830716001102273,1.3319128534960707,1.3017360781363707,1
0.5405468942975322,0.5886736405607739,1.2109039811903421,1.7641593849142114,1
0.6515464072198021,0.6875257104090705,1.285771373227467,1.1074636548841077,1
0.6234825086231177,0.7185419759488797,1.1472601606868214,0.9224882946045563,1
0.7727348968972351,0.6812300965184709,1.2035709982453069,0.9397072983134185,1
0.5800863045167933,0.5448459347433922,0.906956208772497,0.9699681583359253,1
0.7325647491862609,0.5850819098287517,0.9433086817483857,0.9803864130405436,1
0.6079380945517863,0.6346727984214545,0.9010200038948732,0.8486777525359955,1
0.5566779012893365,0.7459066594975193,1.047563418897272,0.7458372541939962,1
0.6617915416909314,0.9100565731960665,1.146859873557064,0.6979830491744232,1
0.5970350474673152,0.6514040056750643,1.3183028249195339,0.8287664597145649,1
0.6664680442317806,0.8758550481135099,1.18773016879471,1.0647548416610255,1
0.6811099379228602,0.5224144189362213,1.051341065436787,0.7319273702275354,1
0.7647824775176392,0.5929821759201599,0.9559897543593863,0.8559837959450851,1
0.6586220158163518,0.788347989709299,1.0664685237206457,0.8241910287243331,1
0.6965011989861363,0.5777160157991718,1.8951700897205923,0.7409610488327383,1
0.801614007802156,0.8113794271048382,2.19497307982833,0.7590136436009468,1
0.7449034114543392,0.748378872504078,2.678762433497508,0.9012450697193993,1
0.7875731946022557,0.7612566729563,2.27785784909438,0.9241826505226387,1
0.6009302729678688,0.7098859381104594,2.2605048481447447,0.8651779406497169,1
0.6977425625861186,0.7947254904112675,1.7112143859402829,0.9645516503277811,1
0.6523783949675426,0.6304429165512283,1.8578881565075156,1.0240642558904525,1
0.7223047575006943,0.43963499894495367,1.846254354481377,1.0422187324183527,1
0.6783531259784181,0.650389072877927,1.4751200367893444,0.6939274343715093,1
0.6623932557766715,0.6488617501580463,1.803347818647009,0.6619074735773812,1
0.6540961723096635,0.5795978702774273,1.6277623236525374,0.8426761016004949,1
0.6477363801483929,0.5126466995679555,1.3650103819318178,0.8797345748999447,1
0.54042707664019,0.6927932236434005,1.755076686608191,1.1971246824989275,1
0.4525091029736538,0.5763489321797958,1.425940542827307,1.885557239120618,1
0.5358508537270102,0.4887037649027364,1.3715975972358203,1.4830127957618373,1
0.4888832590139003,0.5756497803920703,1.54589034255646,1.6118908206938067,1
0.46359706203878676,0.5302806992202826,1.9830872027377793,1.5175493194931053,1
0.5582982132327433,0.5786330235336495,2.3264357247981184,1.664606145301557,1
0.49256825905435286,0.6403509443368446,2.0756595017563377,1.617365443033505,1
0.5285512238890246,0.5777051164416833,1.755709885524951,1.858269877403973,1
0.5645708732530855,0.6105010049708217,2.668890826104181,1.5101497682432645,1
0.5012814863702056,0.568444601929078,2.537932907190979,1.7416493946759468,1
0.4633846641202199,0.6210166925955534,2.079411491945304,1.6531498183345432,1
0.670498533905755,0.6547599095841296,1.9123160869703313,1.4536995183242485,1
0.5964005842262565,0.7397806958250206,2.4993995654243553,1.6919512931036278,1
0.7628727147605527,0.8277165874050044,3.335879296438116,2.2692630886122473,1
0.7059846883277766,0.7542515464134505,1.966738162335443,1.6716572832819923,1
0.5525804479693158,0.7595661628206117,1.765292265216956,1.5413390881453723,1
0.7620535975461478,0.5782213779122614,2.010881678738648,1.3662250596744605,1
0.735523868796511,0.5768657974319046,1.4276499787085155,1.257870902297612,1
0.7765492887148361,0.49099995716240136,1.4866943686102045,1.229629262054188,1
0.7917933485537667,0.6269569841099562,1.3769736452494534,1.3396895298099076,1
0.704453116949399,0.6392484141167099,1.6225095398034428,1.1449641047262287,1
0.6205944343864004,0.5904431499546775,1.8298557616641271,1.2166367719686895,1
0.6934256328764743,0.5690025432104776,1.474927914155424,1.0837715304075775,1
0.7923543374584391,0.5993880177558017,1.8032905090335365,1.1490851606227375,1
0.7527494361145037,0.7520604782722655,2.529332560575787,1.3681631511368002,1
0.7453232581732636,0.5395420964070535,1.852875027108786,1.1625326343118936,1
0.6318627092274745,0.5448566156197635,1.4052755584612842,1.1130536659174137,1
0.7383810195790179,0.6116543574533622,1.4580330258259115,1.0664353366988348,1
0.7418110771098126,0.5794756128245497,1.5548799491621301,0.9581122735958715,1
1.1483976300126404,0.7613512723300303,1.6464183244253658,1.04935711690747,1
0.79947314091393,0.5859654954516128,1.7922613858583385,1.1687470317461293,1
0.6724823658497596,0.7377117673767657,1.607775660669236,1.0093436608411552,1
0.6912374400521037,0.602677470271111,1.5357481725927795,1.067308506670672,1
0.8338083228596019,0.4829718964128863,1.651957022396134,2.262956032932159,1
0.767716293804966,0.5551464062130169,1.5596818333641131,1.2813912707062078,1
0.7556553050577384,0.5556303324816002,1.559524280273821,2.0797741577277375,1
0.7817211621199693,0.7035603498229683,1.4652761768415956,1.7977974120138223,1
0.666027856775904,0.6921365540165306,1.1625885156434328,2.0986782027797015,1
0.6934770015690245,0.7444883989916794,1.2702357971502234,1.7523273409006372,1
0.6526325526556611,0.6260118435638267,1.1434072208393595,1.7971970941037756,1
0.7008817193397393,0.6624537205508109,1.1235444899455285,1.5303667907909282,1
0.6833847278292708,0.55240228401404,1.0846409002277326,1.4576641527906957,1
0.7662628220488603,0.5416696435239042,0.9100842028297677,1.3492343741632493,1
0.6083747063065621,0.6137591454507322,1.0368376288074048,1.306755227642626,1
0.6692274402089519,0.4818536924884158,0.8679531403731784,1.3351064667930692,1
0.811037875811317,0.6278362144770278,1.045008486490028,1.0393119782076683,1
0.8189061168420884,0.5532536553074567,1.2785422267885536,0.9119841952956873,1
0.7211930542045466,0.5567536423676508,1.0473636809711884,1.3481847703530352,1
0.7844536594170802,0.45136113213398027,1.2111520041006414,0.910388850881016,1
0.552427635239398,0.6186853193312707,1.0874041734626079,1.024233456209649,1
0.7232488661701789,0.4088365927525404,1.080971913665984,0.9730567612075043,1
0.6434346174330703,0.4992163496600672,0.9146070528055483,1.0696716379988025,1
0.6141543599939802,0.5730824103466323,1.10138112946593,1.033838246278867,1
0.6444549234346079,0.7137981457202492,1.1398145353733895,0.9453853706800247,1
0.6222641221023358,0.5733795130067681,1.2059434687767225,1.0302111950932658,1
0.6279496602033899,0.5844010782301042,1.7711824055510712,1.0567800463844055,1
0.6042985207514162,0.5788523881123336,1.5288246495120308,1.0448025280936588,1
0.7029282001646298,0.5338373109622319,1.936933296901968,1.0913255669413922,1
0.7847666241652147,0.4599863435373397,1.679224047564894,1.0078947541544896,1
0.7839447609937584,0.7275782969047895,1.395367428603886,1.0670063521840447,1
0.6981001286824514,0.6295173265411576,1.4727968687311448,1.0773363194598653,1
0.7420365226250155,0.5548264101278707,1.38654752074298,0.9961280221257784,1
0.7123084228083523,0.6493934090560134,0.9999010699812514,0.9683400817022801,1
0.6627760887113642,0.4842767892357453,1.1225481307437688,0.865732291145225,1
0.7987734810532104,0.46263174677038194,0.837385554997625,0.8930699236214257,1
0.7367607473156965,0.41074036885399223,0.7500706979096671,0.9871353731965898,1
0.666934640755513,0.36429237693544203,1.3330533852084232,0.6854712674058739,1
0.7481422500202386,0.3347641771118837,0.8266675736778382,0.5610214112408451,1
0.72347165718023,0.36315077665678663,1.9506266653914963,0.6714457076127338,1
0.825003051081309,0.45567241036597067,2.4795827764154454,1.059908084509286,1
0.7113549610200227,0.4173533245144734,1.9411395949954044,0.7935751378591781,1
0.7428008791164992,0.6144332266543285,1.589985513606832,0.762892244634798,1
0.6723796137420398,0.46576944972844175,1.819216565970724,0.8384563948313963,1
0.6709742954800543,0.41161397922894855,1.690803169070811,0.9833984278872626,1
0.7692707448803406,0.49912440971067495,1.4544600012588575,0.7990375365534306,1
0.7484438095197705,0.4459837258817303,1.3781449288584884,0.7551805994680315,1
0.7481802866345761,0.49759189024954853,1.6833049419706319,0.8157722199748828,1
0.7599564365364895,0.4142010175319746,0.9147323929066788,0.7446387357860025,1
0.6788023431050122,0.3410208698276877,0.7152918953344217,0.608571026424627,1
0.610048178190534,0.36608411412440706,1.3451695760795455,0.6171544695650849,1
0.5942453292772285,0.4236495103479925,1.7650058898932635,0.8705790621998472,1
0.6465905453967024,0.37825519193723084,1.7904561955045606,0.7549394461809124,1
0.6506219373378186,0.472615271641349,1.8045775584033361,0.8705746174345588,1
0.7427632295913381,0.35854627894551866,1.4349851987173696,0.809143373468113,1
0.6739973359863675,0.37892721185691824,1.1888930167643474,0.7489708437267412,1
0.5554100683172659,0.3711769841667759,1.2039035016266562,0.5253478473557791,1
0.600101961412449,0.2871068556925142,1.2683645405207042,0.7114892067876355,1
0.6949612921437722,0.4745800578240809,2.27820188071163,0.8920752685917692,1
0.6757797203348107,0.4760100861587187,1.7356487056041863,0.6906322552461261,1
0.6740582931957201,0.4656959672736718,1.8553434330337863,0.7390356031096796,1
0.6155441473042028,0.4929627320376403,1.3266755507717103,0.9002465973437105,1
0.6364068929760589,0.3880223973444074,1.1473486348277404,1.0404311434682698,1
0.6585497675985399,0.4348431231890103,1.060121639670259,0.8541651038622887,1
0.6638329966478738,0.46128853360427363,1.5559858664812942,1.9388961520397319,1
0.6687011795837426,0.3896503530698607,1.2213458432827753,0.8948473743179208,1
0.5972286885695463,0.36990531942570304,1.1728559297504182,0.9533951806851477,1
0.7712320305806404,0.3791395248845226,1.0447702835584982,1.0775388572044264,1
0.6205840495002591,0.30211118525104785,1.095804761639441,1.1466592759435623,1
0.704172103068472,0.4298894353804995,0.8092542386907449,0.838937249708125,1
0.3832655014620312,0.5495381277629693,0.6750806686720996,0.7062954275943526,1
0.2672019188007312,0.6990684351884788,0.1986759779165677,0.5015406185342188,1
0.24768536356603954,0.6641542457332693,0.20405310648007527,0.42153101923093217,1
0.587220215393759,0.7483573308967573,1.0506848902665236,1.8031352267048861,1
0.5792766637064347,0.5835268786672835,1.5096607295934716,2.2143586649317952,1
0.6041128780185859,0.693029529245904,1.1102931939219558,1.965027509909981,1
0.6361450480357267,0.6449987118643845,0.9978215852242556,1.9611065626706508,1
0.6619343692680963,0.6682557607310211,1.148100903787025,1.4918287075166785,1
0.6318501338228313,0.7514160715051948,1.1418110514518418,1.7709274787082028,1
0.7761820544544349,0.6359750497972236,0.9533103746846403,1.4221074807597485,1
0.6803061158239687,0.5294849477808219,1.002499731843005,1.5409586801004738,1
0.9322438002922652,0.6052150097077984,1.6042743525237584,1.2394725390874763,1
0.9504406044062621,0.6321606769005764,1.161386077299296,1.184504202776244,1
1.3118298194324174,0.7056856661476615,1.4961309920109351,1.0741733273905314,1
0.9138286920386705,0.4164644429197987,0.9189117973061668,1.0409085968027048,1
0.7452352880474328,0.40232292613673165,0.8736307300330294,0.7945998885762082,1
0.6046500045465572,0.3557268053960375,1.004864578733592,0.6309591361333906,1
0.5184571316124897,0.4138733855996206,0.8875749212109645,0.7672991184773503,1
0.4798942477625112,0.3114701944008547,0.8205264840318272,0.6657887748205683,1
0.5532599721726146,0.3278068999997862,0.9346958769564955,0.8332065787917117,1
0.5296571844455241,0.34582082061367125,0.8467710671981379,0.5927739642344797,1
0.48547211987740835,0.3621384318756501,0.7866212867067018,0.7796453651183524,1
0.5635142180215497,0.2812681769300865,0.7463547713488602,0.6322138068851377,1
0.5578213569936809,0.31942647367727867,0.7421243345028459,0.5132183574921146,1
0.4960336662607546,0.31728415341060767,0.7228256098605852,0.6203307844556063,1
0.5579398676341484,0.3739170185061875,0.8513530617292489,0.5831395861015727,1
0.6926770815120996,0.41828240233381153,0.9067298994638269,0.5514005271806874,1
0.5059173262507675,0.41331958126639073,0.8425464236503802,0.5237411121808284,1
0.6079084809288933,0.3406921527632222,0.8571763086606575,0.47355012374901817,1
0.5745728930794717,0.4522688662375903,0.9637934796600185,0.5604408239563581,1
0.7225192900655654,0.4379898560253488,1.199356524310336,0.6956981084385551,1
0.8115353497529145,0.5160776504003637,1.1945627546379536,0.599507827152508,1
0.6613815387323075,0.4596352172810844,0.9463116518553909,0.6534793943359938,1
0.5950174965317211,0.5059561223339977,0.9338016211926855,0.7391221992171194,1
0.5690696637728302,0.5098008904385944,1.0098780931486775,0.6458794277888823,1
0.5245135489799804,0.44779236552481033,1.276941285519841,0.6007584460341834,1
0.6510050411176511,0.4945053033059748,1.140130663646889,0.6622686834264153,1
0.6319911537597073,0.46979035636321165,1.0824824160590827,0.497783351082676,1
0.6112460276158554,0.431558756681031,0.7447078434059278,2.060174581527817,1
0.620722454519286,0.5777850221954212,1.206648794880887,1.2209864046969663,1
0.7801376887747189,0.4598068924628126,1.2062929915521623,2.6313362544148715,1
0.6299438485069693,0.6211645843327575,0.9035309626510326,1.8065816118148246,1
0.5806953990736891,0.46064435173602025,0.9030667997136389,1.8439140974375592,1
0.67783859875765,0.5190076224476585,1.2571990260737516,1.7982232972664285,1
0.4794080982653563,0.45730058848366023,1.1407135305171214,1.3165235546228247,1
0.7959185032640685,0.4923903633138187,1.093650078150556,1.3057370565457587,1
0.7211588109176964,0.740687337968938,2.9406142596459035,1.2627926733015453,1
0.8332412245441942,0.845052486666825,1.7674170132232438,1.3454952937120046,1
0.6399639275983331,0.46403573177340446,1.6036505200947688,1.233158947943129,1
0.6260746622288329,0.5902423347231182,1.2866765455998923,1.5019013801622265,1
0.6788522246178332,0.4142096149179406,1.0851066451147309,1.1250409006120634,1
0.6993700015490755,0.38468713981828406,1.1666360931940705,1.3597526829083806,1
0.6414965410704003,0.5165379328436286,0.8510719729564885,1.1464286028367978,1
0.708455102721567,0.3912508515704326,0.9087569423114938,1.2134988302255403,1
0.6003498161582327,0.44126472571001807,0.921375619542881,0.9801198849073752,1
0.5984268849638675,0.42199858343535074,0.6487399923822761,0.8472325574757851,1
0.7068263627090814,0.3049503504744444,0.8757539624550832,0.9354908687696598,1
0.5825277604219156,0.35026736971573674,0.8875253765806537,0.8661749555575002,1
0.6046317320933496,0.3323102186837163,0.8463278116304338,0.987012474723808,1
0.4719916588859665,0.3395391215110789,0.9128362679487492,0.89038163388256,1
0.508921188423545,0.281735374715257,0.710052225454287,0.9019183749620258,1
0.554181758374595,0.4264632500123251,0.9057781068951292,1.0189885169548287,1
0.5415467827725123,0.36325181497042686,0.9072420499788155,1.0930023069141115,1
0.5818699488893652,0.3970034189885462,0.9410982184626254,0.9721059026989737,1
0.605610955165391,0.4248284946560589,0.9844082143293899,0.9056429298113728,1
0.7406195663454245,0.34828409193798426,1.3424808811206226,1.0655623885480703,1
0.634588871619045,0.33972003701460485,1.4767732750243048,1.0305831181283556,1
0.5172029475910553,0.460794155114416,1.09919167751152,0.9400925090608938,1
0.5716385144681752,0.42735145840627053,1.5213052597579253,0.9433966408497356,1
0.5996266551069686,0.36720259983824705,1.155259571584076,0.7886250738078132,1
0.5344317344144818,0.42050683085296076,1.538841556843498,0.8082804127977202,1
0.6450118900855185,0.31843888296480644,1.2122813181396397,0.9638312550474819,1
0.6134803518042864,0.3595664714964861,0.8773868613929199,0.9839771197823644,1
0.7183395491649357,0.35650736808514916,1.2393967634418648,0.9540972511916258,1
0.5849347800386232,0.37869065089566933,0.9693226365666614,1.034140265025249,1
0.7229122803943847,0.36347946966949524,1.095917693106349,1.05070130462183,1
0.6646267165727949,0.4006279163464534,0.8616218320672049,0.8587146959977372,1
0.6704040389027162,0.34260408449010993,0.9292626076678243,0.9183664355721857,1
0.5293810410430647,0.383041463658499,0.9812225011321623,0.8786066425303998,1
0.6603901977385276,0.4604840098256572,1.041568166551176,1.0290663476469346,1
0.7008536673510966,0.42259731161047803,1.1244401581075967,0.9642576815583461,1
0.5568728266783606,0.381876045209499,1.2608678704414893,1.1274580795616644,1
0.6690553453027893,0.4361707018220131,0.9649686983995992,0.9075859264015024,1
0.76384528657948,0.4675848731419578,1.0924590643662973,1.0884721745185906,1
0.6926118692332066,0.5125789295172568,0.9798746832059716,1.1326017681826643,1
0.7704488712043308,0.5583453821942858,1.0627087505645723,0.9122057929413601,1
0.696492426095705,0.569988064012789,1.05488347610231,0.7795175528023057,1
0.793234866518809,0.6437828686370058,1.165943389461101,0.9021204916229033,1
0.9357723075079115,0.5772162547584236,1.2880122819648074,1.3212794214515788,1
0.823511246687083,0.5137093001405306,1.1351483491318923,0.9820701868936793,1
0.704801170141078,0.5671512479596242,1.0669854058729384,0.9628485698776742,1
0.841193431924925,0.5628422205408099,1.3342934822972692,1.1552691654419112,1
0.774721070740978,0.5320074393567257,0.9777929264706973,1.16097402391738,1
0.7807460834880492,0.4727078900754988,0.8420920783648349,1.1531971334144384,1
0.7121912093151002,0.4191413451136353,1.1397594271667542,1.3244448672754294,1
0.798684081857675,0.4974922609933941,1.2523982107453202,1.3188637950529838,1
0.6928509815817776,0.49590581012825385,1.0159426402073446,0.9778037486728505,1
0.8576429099633212,0.5169264302109687,1.4938231719858541,1.1819544118488154,1
0.8438399097598643,0.4576489917477114,0.953449772602846,1.1390535750120674,1
0.5795965057337727,0.39504838580422086,0.9159210610284368,0.9373162375620305,1
0.7623392024077065,0.5201184534025772,0.9285460645820478,1.1728178773941806,1
0.6022139006481099,0.4509854267112308,1.0542278120794057,1.2863113792038943,1
0.6547056469937491,0.4154722741018418,0.9166697799404955,1.1173972684523827,1
0.702107732436991,0.8162531856606127,1.7965468169475018,1.8419496972483853,1
0.7960203039611458,1.017948480511743,1.9937078892179205,1.6930770332077796,1
0.6640774014781168,0.819312034725343,1.5861140427563718,2.036792614507385,1
0.637494227380151,0.8646178429036669,1.2599030865857226,2.312910705453072,1
0.7589458145452022,0.7036718257294396,1.239463262504981,2.3344268485300574,1
0.8464685306735056,0.6984475791219892,1.6457233130968134,2.219507024294445,1
1.312996823684847,0.9033205157161667,1.978569127024319,1.7938614918988205,1
1.5446886527014656,1.184829348014837,1.9146557595893774,1.8319527425031528,1
1.155345946921034,0.7625063465454088,1.7963748553817254,1.4991135338210266,1
0.8312592204729724,0.782945946924748,1.6657128152739702,1.469574369305424,1
0.8057648164612277,0.6732723373386178,1.382051365523947,1.4670269578871604,1
0.821953545074023,0.612032833974191,1.265212361051575,1.357238486781669,1
0.6651292882816789,0.6597203798000337,1.2941127455308679,1.2704527412267177,1
0.6371381919747655,0.63861621409383,1.1919680893606748,1.24979731069414,1
0.6551750337027846,0.5243457713005861,2.0194475978759066,1.4282436753003769,1
0.6583949613375261,0.6295718855446699,2.146464211652726,1.574279257266956,1
0.7679983766532159,0.5695285051436586,2.626188396416108,1.3362027615619254,1
0.7189035126907257,0.5442405216895411,1.8547224623154943,1.517090563051824,1
0.8102150459878205,0.6244060283595463,1.6313771792694882,1.191753777846894,1
0.8150178376666902,0.697517861020179,1.7782698646080217,1.3035223840489316,1
0.7361008994458216,0.9591620801718027,1.9508025722939502,1.5526649897173124,1
0.7295727597014318,0.722804085785319,1.748499448966903,1.4355767289475534,1
1.0049407735066747,1.019457514734453,1.5014693397478638,1.3508267570384709,1
0.9249509209680985,0.8933538332876678,1.4281267318496838,1.4437326653191411,1
0.773891144438869,0.8670878001803082,1.4040026343862078,1.6966615849023927,1
0.9537363405621203,0.896423895239304,1.3954854974790787,1.375822105366636,1
1.0213305979567342,0.833686922379615,1.3477878207928196,1.6335452098792482,1
1.0524404737470408,0.8179415321466588,1.2584944279400114,1.6046280051521167,1
0.7766518994572554,0.8416371475817599,1.3057860996675714,1.289182247818401,1
1.0898360032021528,0.778749890295586,1.2399080031723964,1.1873160722323455,1
1.090703867821387,0.6665668698388796,1.4765035922562648,1.584282444864083,1
0.9160294748443252,0.8419183103095484,1.2959330512422151,1.4957423857405632,1
0.9578160944418057,0.8128548973170776,1.5749687858066406,1.9673569354854628,1
0.9052564392482612,0.7801189721668257,1.8529058841901744,1.9283252382250902,1
0.7353897198919739,1.1209794524863619,1.6338404564425288,1.7261903594376626,1
0.9216968391685251,0.7315261077448876,1.7633365157453151,1.6389934042889995,1
0.8562732792648852,0.8315908463671737,1.822743956315015,1.8631452748738169,1
0.7892354017649995,0.7299874585337272,1.8073503479090254,1.6326227043459707,1
0.7878276575046465,0.8010250805390816,1.7364901071687164,2.0046291041492843,1
0.735493097384387,0.8030583122693388,1.9000789829611064,1.9103082721536762,1
0.7665873149630164,0.8052066255941129,2.7934192393678443,1.7404349034069833,1
0.7221187001483239,0.7456970428921513,2.2571941077242306,1.7669821828240795,1
0.8659633880736652,0.6473006315977469,1.5250687668256655,1.8896890163117446,1
0.7307328999566259,0.7920736148649112,1.6721626383928039,1.8630919695812207,1
0.804637995416818,0.697310644550508,1.5800909113826311,1.7388654464551034,1
0.7178555298501572,0.6345123066092403,1.58812776157557,1.6648157746846322,1
0.8455259693563841,0.6843994294849152,1.2190013995206854,1.4244117537255783,1
0.6838507158496164,0.6667252514253921,1.2232182689815148,1.207729910431256,1
0.7762092096891574,0.7179634324901085,1.231494788425346,1.8305585951494272,1
0.626435085832775,0.6295914648024951,1.0912148815653373,1.4192960395370504,1
0.7342048996610535,0.5176878247173116,0.9933671790389224,1.3960964173086987,1
0.9084800005069286,0.8174925625484215,1.8249984086860112,1.4008912307150885,1
0.9709407458224238,0.7572835211596038,3.9802024731428327,1.5845080448996365,1
0.891243661604803,0.6296344017007036,2.319945394308533,1.948519690446254,1
0.801380249556477,0.7550978275272622,1.884005285157513,1.6191326733362676,1
0.933149191307541,0.6512830352246248,1.3016724281945111,1.4935940817105964,1
1.1598088496110237,0.6000022547647165,1.62614860064818,1.4233414073094113,1
0.8815115061669981,0.6097880676376867,2.018729832333653,1.0757219536956453,1
1.110419535245143,0.6847517586259222,1.0891456106682365,1.29236540815731,1
0.8618335494410981,0.4982996698606375,1.1497018515013324,1.2661094800380077,1
1.1554523051087928,0.5526298318735978,1.5017622472038448,0.9056831470286064,1
0.9249665048312332,0.6795664433694572,1.4762911451017147,1.2054490969301423,1
0.8506597113955543,0.7654017724945334,1.7837826060787283,1.341864583895515,1
0.9226009513119116,0.5895161365638341,1.7682685509453377,1.0232181708520718,1
1.3247300069491286,0.7102066924233854,1.7306887406506026,1.6744257022177573,1
0.9925031019079446,0.730813036434009,1.955994299238474,1.3583824404135239,1
1.058347544674426,0.659632269992564,1.497800533397391,1.6685424133781255,1
0.9533840472212413,0.5354618872418666,1.482806450062415,1.6031597708731227,1
0.821474882528161,0.6812803152338734,1.880826808221746,1.554252856168316,1
