time,chanel1,chanel2,chanel3,chanel4,position
0.0,0.0120602159517681,0.0071718916092288,-0.0049123048391528,-0.010351529249359,0
0.001,0.009734345422447,0.0020812731510979,-0.0051522151021362,-0.0150850201403643,0
0.002,0.0095814414932187,0.0013230773992885,3.150569623372912e-05,-0.014105499729092,0
0.003,0.0083548967553117,0.0064956543615156,0.0009867324424516,-0.011838385667562,0
0.004,0.0054730078848432,0.0021688593654328,0.0042197501603341,-0.0090289834953065,0
0.005,-0.0103029423619602,-0.0003623194239806,0.0057413364091954,-0.0075749658667787,0
0.006,-0.014066765384417,-0.0033676273179382,0.0091057662290309,-0.0095665071103068,0
0.007,-0.0011151171179949,-0.0054908439282557,0.0035063638107499,-0.006468812757262,0
0.008,0.0036485115217703,-0.0113425356244246,0.0041466839419116,-0.0009677279046176,0
0.009000000000000001,0.0034745114649377,-0.0083722556890614,0.0045147592730304,-0.0020937546470165,0
0.01,-0.0004939913898726,-0.0100466228145299,-0.0005283759821001,0.0011788492503285,0
0.011,0.0017928777005127,-0.008798145701514,0.0006013484017371,0.0051032323389793,0
0.012,0.0021319963791237,-0.0097190222889549,-0.003436371043195,-0.002932384836997,0
0.013000000000000001,-0.0030395423175326,-0.011275710584081,-0.007068835013502,0.0069651695815588,0
0.014,-0.0146023903117076,-0.0214532462653271,-0.0028874379771076,0.005906108876287,0
0.015,-0.0240487644625441,-0.0261056362494353,-0.0020421923665005,0.0041617930914542,0
0.016,-0.0189011819907659,-0.0235917595053513,-0.0028430494476714,0.0110897643387946,0
0.017,-0.0100259141602275,-0.0194685307316651,-0.0076800238755826,0.0082607814132613,0
0.018000000000000002,-0.0018851549888851,-0.0098801694995126,-0.0035891823898057,0.002358734719687,0
0.019,-0.0100861317409546,-0.0025453427726632,-0.0020454794106407,-0.0060756080086121,0
0.02,-0.0083266369657586,0.0128433065431796,0.0002731710141148,-0.0017531069694398,0
0.021,-8.578400091975336e-05,0.0212889115189443,0.0031515209969223,-0.0186176779143819,0
0.022,0.0068454624410918,0.0381724648647689,0.0018334398571514,-0.0207380610478157,0
0.023,0.0068784255713653,0.0365108597569478,-0.0041124717365073,-0.0169272236381513,0
0.024,0.0005149446620788,0.0154404311002311,-0.0031227291099935,-0.0046166257051199,0
0.025,0.0005247860146232,0.0073537238203482,0.0018307009140352,0.0063320763513001,0
0.026000000000000002,0.006409949371224,0.0037073821997219,-0.0034249325621825,0.0101587032772313,0
0.027,0.0128839607550475,0.0039347655085542,-0.0069868553462595,0.0052136139750794,0
0.028,0.0198579056773892,0.00192662813024,-0.0021478440832605,0.008216026079616,0
0.029,0.007429339810335,-0.0005650441664041,-0.0057770514362757,0.0100865892910012,0
0.03,-0.0011594618611405,0.0038257977305622,-0.0008335461879881,0.0066687257300425,0
0.031,0.0097990612452418,-0.0002803076298004,-0.0044469165832783,0.0099954059437688,0
0.032,0.0084623199769586,0.0007348578076828,4.619247049839744e-06,0.0215709733100581,0
0.033,0.012414663054635,0.0024756865983529,0.0014654150074011,0.01929008746412,0
0.034,0.0129449762803904,-0.0009035858651584,0.0033663155482093,0.0136373215623766,0
0.035,-0.0094225640081964,-0.0073575050170664,-0.0080869371201019,0.0093105547943391,0
0.036000000000000004,-0.0090541075943574,-0.0090556975013518,-0.0109805100924495,-0.0003854941443716,0
0.037,-0.0053092970812013,-0.0015141173329371,-0.0076752368860225,-0.0022096766436014,0
0.038,-0.0065541510601632,-2.056189259755576e-05,-0.0037993930319892,-0.0082551886563518,0
0.039,-0.0076829671790188,-0.0012732907320012,-0.0019781512996515,-0.0044599593840071,0
0.04,-0.0099616569325256,-0.0061356267865185,-0.0020819826388796,-4.422804557487059e-09,0
0.041,-0.0047091533104073,-0.008905213839181,0.0004233872430767,0.0033053243913384,0
0.042,-0.0022100497301153,-0.0097261859683101,0.0062672340123177,0.0107796760972872,0
0.043000000000000003,0.0048217623741445,-0.0078289572271874,0.0044952425330994,0.0212302091007702,0
0.044,0.0105123279916179,-0.0094373133144419,-0.0015496278632077,0.0097436573064179,0
0.045,0.0059962382097081,-0.0079438183036772,-0.0012306285735509,1.688435483953167e-06,0
0.046,0.0110823441246386,-0.0055401200469446,-0.0022189093361157,-0.0012591734795975,0
0.047,0.0087730150744452,-0.0065208905984826,0.0007021502666445,-0.000412796396225,0
0.048,0.0095774639976747,-0.015436829251408,-0.0007725748908117,-5.197637111637181e-06,0
0.049,0.0140097209761703,-0.0074899855386873,0.0003905718662421,0.0021922809897351,0
0.05,0.01402751872247,-0.00154077508586,0.0048617520848455,3.642340946165767e-06,0
0.051000000000000004,-0.0099503344216147,0.0032279309078739,0.0078805017716366,-0.0012602122975605,0
0.052000000000000005,-0.0587673744783863,0.0036383896379269,0.0095713378187738,0.0011765737116408,0
0.053,-0.0494332691353897,0.0006039326883386,0.0098576543377344,-0.0003127536308489,0
0.054,-0.0261130941965492,0.0019264707911388,0.003553119166481,-0.0027983734560561,0
0.055,-0.0219831847017472,0.0107125863827725,0.0059605976498065,-0.0043664191921296,0
0.056,-0.0213590681128483,0.0099431785904944,0.0008618066054396,-0.0080413117892474,0
0.057,-0.009968105611532,0.0078694214466535,0.0069850166129536,-0.0021689459315517,0
0.058,0.0015985587551071,0.0081801427974764,0.0039810779208489,0.0008584801160507,0
0.059000000000000004,-0.000877561265717,0.0084028635147402,0.0049282190011483,0.0006965244472436,0
0.06,-0.0019472427857544,0.004357850374813,0.003283476734761,0.0005663167072663,0
0.061,0.0010044585132667,0.0038631828522861,-0.0013914779205164,-0.0050038185440211,0
0.062,0.0003465811754298,0.0024445487343826,0.0026988821620579,-0.0079398261764323,0
0.063,0.0031770939043351,0.000622973402666,-0.00276016374517,-0.0131838674142035,0
0.064,0.0040151110362617,0.0045629157885433,-0.0018825717458249,-0.0128704894844138,0
0.065,0.0017598937227716,0.0014214654121038,-0.0057904751404926,-0.0042672165514145,0
0.066,0.0021420039765536,-0.0005548410668065,-0.0025423847057959,-0.0053029425767297,0
0.067,0.00421482865964,0.0003917795512181,-0.0008840930315777,-0.0051789055053441,0
0.068,0.010550764551242,-0.0029232560609329,-0.0001550350842678,-0.0043103738398551,0
0.069,0.0114358828889389,-0.0078493680866956,0.0025259899122164,-0.0016121139724031,0
0.07,0.0161580388432443,-0.0079715415544439,0.0036729393744442,-0.0018991349660598,0
0.07100000000000001,0.0167402969334538,0.0004323767646961,0.0039687593907103,-0.0014637442695029,0
0.07200000000000001,0.0145347457643442,0.0046518780852424,0.0053922899446305,-0.0028346112506405,0
0.073,0.0160019603720368,0.0019307183671523,0.0074398092809032,-0.0033180016284818,0
0.074,0.0111272289852962,-0.0017218413993769,0.005580061232607,-0.001037714185213,0
0.075,0.008717930857119,-0.0001593969368459,0.0028265480035788,-0.0054133261435939,0
0.076,-0.0062628296764657,0.0039250349946668,0.0019600389187318,-0.0056507243223595,0
0.077,-0.0263692336979075,0.0003024589745802,-0.0037939066236446,0.0046865287055096,0
0.078,-0.0254636635217622,0.0033423236651576,0.001419483941758,0.0038614252209377,0
0.079,-0.0193104132887298,-0.0019908937326858,-0.0011575786468368,0.0082104749748209,0
0.08,-0.0201756300984214,-0.0044232570730943,-0.0078984890989664,0.0062713045816927,0
0.081,-0.0133361250846119,-0.00378181689016,-0.0091733083266646,0.0057600079867232,0
0.082,-0.007144644268527,-0.0084912318861355,-0.0074615951457451,0.0050163781497275,0
0.083,0.002261034754504,-0.0095893042389994,-0.0063765687570457,-0.0015837407637183,0
0.084,0.0083613188866769,-0.0073581797146614,-0.0001670859501123,-0.0027356136307808,0
0.085,0.0131195067935927,0.0015013043543925,0.0048948186099408,-0.0157941295664334,0
0.08600000000000001,0.0122369367481297,0.0087928443249605,0.0018535741681133,-0.0159985384545753,0
0.08700000000000001,0.0113449051261236,0.0084587659143396,0.0059938127229187,-0.0106391342593959,0
0.088,0.0102883104560893,0.0063008090734538,0.0025151996679281,-0.0029074660011099,0
0.089,0.0062242642372388,0.0024383874952973,0.0003664014153737,0.0003860942231506,0
0.09,0.003063065329396,-0.0134959858895935,0.0020869389985138,-0.0034793234841741,0
0.091,0.0077583858559018,-0.0145907601313611,-0.000677237890186,0.0018508107357738,0
0.092,-0.0007381260772033,-0.0222822196795435,-0.0007908140810855,-0.0002927371357883,0
0.093,-0.0111379965460989,-0.0229743862979635,-0.0022111962389053,-0.0007957756674991,0
0.094,-0.0044749181915668,-0.0141624930474536,-0.0078831615819184,0.0034652686314185,0
0.095,0.0002720771581998,-0.0007509962865692,-0.0096483578225767,0.0058260699256376,0
0.096,0.0068279366255726,0.0031382545723965,-0.0112146333656916,-0.0021112616857259,0
0.097,0.0064885799643491,0.0070522141408,-0.0071449887265667,-0.0014057792761658,0
0.098,0.0077679597309852,0.0289427783182863,-0.008766088977126,-0.0023677979419522,0
0.099,0.0116353840551544,0.0332314366846316,-0.0089838759456302,0.0039157138256545,0
0.1,0.0196142302011914,0.0210947979792384,-0.0080417673209539,0.0032226738296101,0
0.101,0.021637359455515,0.0115921663497604,-0.0038328204033856,0.0040810260978666,0
0.10200000000000001,0.0210687231480584,0.0040750656747024,-0.000950177379531,0.0036603161093048,0
0.10300000000000001,0.0141006909967477,0.0037928219239974,0.0041590039633829,7.731773952202156e-06,0
0.10400000000000001,0.013735543283791,0.0004776737881301,0.0052393096381819,-0.0002431375516588,0
0.105,0.0087764089525077,-0.0040223042306526,0.0103756319024593,0.0012063460976355,0
0.106,0.0052614694608722,-0.0097484996370178,0.0019360759015457,0.0047453312710018,0
0.107,-0.002976424087276,-0.0076086380471743,0.0004765161449471,0.0084285310500547,0
0.108,-0.0074546029558424,-0.0060426779538802,-0.0013382658963529,0.008679853417531,0
0.109,-0.01799779687324,-0.0165976741526348,-0.0034363139001533,0.002841004852486,0
0.11,-0.0418923185316112,-0.012962375196014,0.0052942278606136,0.0105033270531939,0
0.111,-0.024350366867446,-0.0102246214434524,0.0049052401106774,0.0164916205479374,0
0.112,-0.0188176411677115,-0.0127788438712974,-0.0022528110611383,-0.002029122303911,0
0.113,-0.0178771167332617,-0.0103664269851958,-0.0004543099897601,-0.0082484596923962,0
0.114,-0.0135673017574387,-0.0008157660755255,-0.0015081288183452,-0.0059642202115224,0
0.115,-0.0021274529241527,0.0113948776237336,-0.00287470613479,-0.0034734790132801,0
0.116,0.0035101381965565,0.0108831395489906,0.0011433056316684,-0.0032413100661859,0
0.117,0.0062455725647109,0.0132614491856246,-0.0010555735808131,0.0035527568343572,0
0.11800000000000001,0.0101689674072313,0.0099498834285379,0.0021756000030032,0.0064507189213502,0
0.11900000000000001,0.0131785945762336,0.0174695139491265,-0.000303009777993,-0.0030344071354631,0
0.12,0.0121603512246174,0.0139651076126025,0.0006622034139484,0.0010032950547154,0
0.121,0.0105072703072918,0.0139142452579466,0.0034174934600235,0.0034288761116036,0
0.122,0.007940387595717,0.0190423936372572,0.0084738583377958,-0.0013126762455011,0
0.123,0.0125556930698896,0.0236376956708456,0.0047288976152946,0.0031798329416662,0
0.124,0.0079089423357895,0.0233494961630931,4.301440837810238e-06,0.0017443607595717,0
0.125,-0.0037624942980567,0.0127785828240242,-0.0005813837583989,-0.0055600477409105,0
0.126,-0.0063159642085525,0.0007054149272498,-0.0028175679520203,-0.007481651936362,0
0.127,0.0123446191456642,-0.0034848029950337,0.001670312582086,-0.0083333016948299,0
0.128,0.0143348277104253,-0.0041630111251323,0.0039057148652347,-0.0109675262776854,0
0.129,0.0063458888276986,-0.0030633020600381,0.0021850093945453,-0.0041211922319701,0
0.13,-0.0008379461394309,-0.0014127356447782,0.001372373037531,0.008538297613916,0
0.131,0.0031574520949395,-0.0013695043371487,-0.0015999493488799,0.0072552902854504,0
0.132,-0.001077903996477,-0.0021878385321037,-0.0019194434087871,0.0029180638867096,0
0.133,0.001688483098755,-0.0044118090367094,0.000105173491294,0.0045367565021783,0
0.134,-0.0124522654867948,-0.0071983272087106,-0.0023653862093398,0.006839449561512,0
0.135,-0.0294234210517792,-0.0103287552633485,-0.0011665553453368,0.0009046666601485,0
0.136,-0.0397613396858661,-0.0110492770345931,0.0011742457894927,-0.0049571692857988,0
0.137,-0.026056061515405,-0.0134282198357831,-0.000238147912269,-0.004348179563232,0
0.138,-0.0032253109595716,-0.0149382580862161,0.002448595266682,-0.0046526439041535,0
0.139,0.0003453970934286,-0.0153582457198181,0.0043625861689527,-0.0016877087083067,0
0.14,0.017343743212233,-0.0079854477244176,0.001416598859434,0.0068766257871928,0
0.14100000000000001,0.0243013614259367,-0.0043213593485111,0.0020326375613417,0.0093984834884387,0
0.14200000000000002,0.0185465093511036,-0.0068286352464955,0.0022098058069295,0.0054660847201886,0
0.14300000000000002,0.0045054982611834,-0.0013570683509466,0.0062186610151966,0.0070015707256466,0
0.14400000000000002,-0.0119482028790838,-0.0019383496065296,0.0020639136284661,0.0040968417728086,0
0.145,-0.0250379704345636,0.0015779489208397,0.0028838579290827,0.0004580801460572,0
0.146,-0.0177028877215453,0.0004680508925788,0.0009084076506994,-0.0067327703765568,0
0.147,-0.0052556868630934,0.0006341735146245,-0.0007174550238715,-0.0084032906011964,0
0.148,-0.0045030258338237,0.0075088292653129,-0.0001535851276466,-0.0198602686616262,0
0.149,0.0043695951738171,0.0012639745530062,-0.0052905083621329,-0.0186122296766921,0
0.15,0.000466453517345,0.0025461561492987,0.0019860208643719,-0.0119323066327866,0
0.151,0.0077412495062718,0.0067246199280806,-0.003815729108359,-0.0104235180524952,0
0.152,0.0107974577113709,0.0027411938530081,0.0012828054570618,-0.0035695419083056,0
0.153,0.0069175988633852,0.0046054072569434,0.0002577370343373,0.0006413585637224,0
0.154,0.0099694246724987,0.0014457882491411,-0.0003424009617654,0.0015296180598673,0
0.155,0.0024876581378159,0.0011078739967703,0.0011735164897268,0.0067506377700633,0
0.156,0.0027404423964844,-0.003603576527239,-0.0002217515244332,0.0104860966098231,0
0.157,-4.981708624813622e-05,-0.0056180393371116,0.0043490995431977,0.0079332503089153,0
0.158,-0.0039540845476401,-0.004207756879307,0.0026722019008047,0.0061518967342377,0
0.159,0.0062376996803757,-0.001405629978542,0.0020681824008376,0.0018620159337761,0
0.16,0.0083532194802907,-0.0021427807423767,0.0024238308427424,0.0041109543543823,0
0.161,0.0077762823654404,-0.0071373422383073,0.0015480868522412,0.0043408919906008,0
0.162,0.0115020930244298,-0.0088678612833028,0.0004559284802512,0.000398292718213,0
0.163,0.0156904113472787,-0.0064113657315698,0.0011228725117951,0.0007897452887879,0
0.164,0.0076417249997521,-0.0025310705667667,-0.0052747390318638,-0.0004238370301606,0
0.165,0.002661092210208,0.0008895933392056,-0.0063966790472168,0.0004162889578962,0
0.166,0.0040400853102661,0.0100252310853817,-0.0099308086665616,0.001613669731656,0
0.167,-0.0026553717838519,0.0083808134491571,-0.0062106102708171,0.0018986366592534,0
0.168,-0.0338984429017571,0.0074457483961215,-0.0050725777617959,0.0027053890983699,0
0.169,-0.0323238329700396,0.0081410185808478,-0.0024726854446741,0.0032016058826512,0
0.17,-0.0066349283298636,0.0089581053895177,-0.0022371484030474,0.0030689826768723,0
0.171,-0.0059551838255941,0.0071343787813606,-0.0009474878389636,0.0028619177616994,0
0.17200000000000001,-0.0263867194433977,0.0031898945829196,0.0003161557954071,0.0172968731405773,0
0.17300000000000001,-0.0153892025318216,-0.0070065027260104,0.0001056243709646,0.0167691451741304,0
0.17400000000000002,0.0009843310147148,-0.0150930344155108,-0.006221675112143,-0.0046210629156392,0
0.17500000000000002,-0.0063939792238341,-0.0236582077198318,-0.0025461846184278,-0.0041152651941525,0
0.176,-0.0068502729740789,-0.0353726746805926,0.0002656436010928,-0.003041503097608,0
0.177,-0.0115945969728252,-0.0317593518681536,0.0004087693373007,-0.0052355077137777,0
0.178,-0.0013123403540913,-0.0245224807236834,0.0018494638984544,-0.0020935622096635,0
0.179,0.0063240447360346,-0.024409427133424,0.0009695822315532,-0.0024390399825844,0
0.18,0.0070513128944788,-0.0172870469261622,0.0010739627420681,-0.0069588920707637,0
0.181,0.0094171850132016,-0.0136264506730042,-0.002081911086003,0.0004920039432789,0
0.182,0.0063758992436872,-0.0080749387375926,0.0003644936543415,-0.0034700371625268,0
0.183,0.0050220779365658,0.0127592527971295,-0.0014581318329661,0.0016042408679142,0
0.184,0.0019978649039053,0.0335096812010207,-0.0030521689749192,-0.0024851862489759,0
0.185,0.0013013387912434,0.0249039141529639,-0.0011803619218992,-0.0003567314175766,0
0.186,0.0029945923363749,0.0130203999106212,0.0013722369023253,0.0055909681212857,0
0.187,-0.0012989134487536,0.011663147244096,0.0019029559802441,0.0080928596404373,0
0.188,-0.0031325547783541,0.0058172257164399,0.001956198492229,0.0084632088551616,0
0.189,-0.0018854154831764,0.0067514797987276,0.0021307841142399,0.0035120120622851,0
0.19,0.0032478911129682,0.0060177538521427,0.0037621418291647,-0.0002584335152201,0
0.191,-0.0003299911812491,0.0022593676031921,-0.0014140691411464,-0.0045522025552715,0
0.192,0.0041443644092013,-0.00072393730304,-0.0026930599202079,-0.0067840126061486,0
0.193,0.0060337307698306,0.0045730202877812,0.0024719355360796,-0.0086897743819646,0
0.194,0.0088345870018009,0.0026221897867143,0.004627646416635,-0.0068947166320855,0
0.195,0.0105987365200766,0.0079266695226161,-0.0002497650045189,-0.0053860102665549,0
0.196,0.0084006964269601,0.0119453222703696,0.0001320548297432,-0.0021197289870111,0
0.197,0.0098354067852413,0.0094237788432799,0.0009875228795339,-0.0033547505170193,0
0.198,0.0092361624694544,0.0090660854591467,-0.000661935116473,-0.0012923569291622,0
0.199,0.0085026371058718,0.0155644917305298,0.0070417204172659,-0.0011521623451256,0
0.2,0.0159376029033647,0.0227371585390081,0.0068887140743259,-0.0036951498054918,0
0.201,0.0162736243835282,0.0187540077330566,0.0022452546985059,-0.0054453213249132,0
0.202,0.012136402916573,0.0095924813245574,0.00245851763951,-0.0002745289532273,0
0.203,0.017768384584786,0.0100494926261172,-0.0001624067148595,-0.0010872677994263,0
0.20400000000000001,0.0109625438382799,0.0014818362579352,0.0023259173959527,0.002220255172485,0
0.20500000000000002,0.0048284697682008,-0.0042002634999826,0.0034615690316888,0.0077976088113485,0
0.20600000000000002,0.0041458304742258,-0.0039874654085557,2.030783874961312e-05,0.0031288929763147,0
0.20700000000000002,0.0049216068310474,-0.0102613843347986,0.0011596977491882,0.00831739384194,0
0.20800000000000002,-0.0044147475771066,-0.0038831696423361,0.0029320516121532,0.0009340843892017,0
0.209,-0.0222954234701116,-0.0040361044117395,0.0036216381961352,0.0020676604671403,0
0.21,-0.0357966981666493,0.0004327579947437,0.0020278588140136,-0.006615565385111,0
0.211,-0.0221662394602599,-0.0006632646096414,-0.000242919555793,-0.0035206868989376,0
0.212,-0.0096195763468637,0.0038931245114184,-0.0001844994424485,-0.0024621511357477,0
0.213,-0.0080198751334126,0.0002703904000667,-0.0018843303362491,-0.0020940318608486,0
0.214,-0.002176676879764,0.0090027853278313,-0.0016961996810052,0.0019523864724888,0
0.215,0.0026484104699315,0.0070572152539511,-0.0010469505696499,-0.0121985150938063,0
0.216,0.0139085370000401,0.0050475417091631,-0.0042427744801615,-0.0235208790051842,0
0.217,0.0126691790058162,0.0102313750180713,-0.0088731983219574,-0.017920984170581,0
0.218,0.0114212648334222,0.0082517862842206,-0.0111868703317953,-0.0061183697738202,0
0.219,0.0084101651741151,0.0102244811873687,-0.0065367182299406,0.0002115255241372,0
0.22,0.0060347953194502,0.0050632837594991,8.511788679857983e-05,-0.0005283017236971,0
0.221,0.0003199769551593,0.0028053812155001,-0.0025307508532788,-0.0010278653371881,0
0.222,0.0101136221593005,-0.0010621532186361,-0.0001408486062165,0.0015140282684021,0
0.223,-0.0273310953049306,-0.0062599187985156,-0.0008540523809293,-0.0023544418526579,0
0.224,-0.030006461240999,-0.0054794878882016,0.0025559721816007,0.0017374220435487,0
0.225,-0.0112293952661119,-0.0063829986139516,0.0038464607990712,0.0112373534627001,0
0.226,-0.0039695260876336,-0.0068084460624814,0.0022411599892537,0.0068150054258491,0
0.227,-0.0047775956007494,-0.0080088725108921,-0.0036359255134077,0.0025432170902955,0
0.228,-0.0041551748925121,-0.0124841720685407,-0.0014456280695335,0.0057119199281856,0
0.229,-0.0026132088333149,-0.0131014379874832,0.0070987982649457,0.0103929587909591,0
0.23,0.0006939068193411,-0.0121975921873713,0.0034373891385525,0.0160814085796565,0
0.231,-0.0030742614703395,-0.0124771459987938,0.0027643800410647,0.0140522998787983,0
0.232,-0.0028351959224123,-0.0109985525844304,-0.0006665702944942,0.0084964873884054,0
0.233,-0.0019506977297948,-0.0045441378524273,-0.0054487384500627,0.0025150679545888,0
0.234,0.004933944768758,-0.0107645509109693,0.0004803537575199,0.0020649658971123,0
0.23500000000000001,4.477794422160406e-05,-0.006901326285874,-0.0004389317993607,0.0010532754848283,0
0.23600000000000002,-0.0054313313869891,-0.008549054220488,-0.0059932712382217,0.0021048517925566,0
0.23700000000000002,-0.0104001232223812,-0.0069130227120854,-0.0033387381836875,-0.0003687736191224,0
0.23800000000000002,-0.0097894283672882,-0.0094954579230083,-0.0001795227995937,0.0005098982036038,0
0.23900000000000002,-0.0064280053430091,-0.0064621725339528,0.0049704630401089,-0.0007016392539357,0
0.24,0.0157473676691618,-0.0117221793289835,0.0032767575490142,-0.0009958478852142,0
0.241,0.0067959902238231,-0.0115601319320871,-0.0007575880685508,-0.0010820393661108,0
0.242,-0.0036253900908479,-0.010283647799869,0.0022328312413247,-0.002258002575503,0
0.243,-0.000624488192749,-0.0100755779319607,0.0018310996992891,-0.0021367632658427,0
0.244,0.0108256120911193,-0.0034423883465278,0.0064733131307859,0.0167712198504639,0
0.245,0.0206568579659896,0.0044266745478217,0.0016250817365455,0.0098201073419394,0
0.246,0.0186694927484784,0.0151300299811033,-0.0005113227788151,-0.0012867417500463,0
0.247,0.0132715946984524,0.0197074914122357,0.0046058977529273,0.0016318424883324,0
0.248,0.005254045734697,0.0147557889356325,0.0041018440606607,0.0032551213928383,0
0.249,-0.0034405742700755,0.0041757224976643,0.0009199404967615,0.000257047001358,0
0.25,0.0022474426586519,0.0045808404329673,-0.0006469661696514,7.236954371249747e-05,0
0.251,0.0112320275059976,0.002260384546367,-0.0104772686863994,-0.0064784989585225,0
0.252,0.0015465880108588,0.0019906486778985,-0.0125722657905248,-0.0058497874422354,0
0.253,-0.0223751907847717,0.0048688099203821,-0.0085747513262186,-0.0065276684140034,0
0.254,-0.0035284192988381,0.0067622709431747,-0.0017322411332126,-0.0011989438580875,0
0.255,0.0033805653317525,0.0029073859745395,0.0001669820783295,0.0027461021371876,0
0.256,-0.0026109591269359,0.0020617910150864,-0.0021757891906527,-0.0047377847120785,0
0.257,-0.0187638968200503,0.0001388148109606,-0.0034930184784657,-0.0055540514858363,0
0.258,-0.0130212751500899,-0.0018275287038419,0.001102448923025,-0.0053613746765356,0
0.259,-0.0303570290348612,-0.0009222410765537,0.0020233011675981,-0.0083451768415296,0
0.26,-0.0293537310383213,-0.0044726335113934,0.0088093523942935,-0.0025549401068668,0
0.261,-0.0119476310991031,-0.0037845105909159,0.0077788040825618,-0.004198760064204,0
0.262,-0.0172599744931805,-0.0066585942422931,0.0069562054728336,-0.0049904547891905,0
0.263,-0.0215439018102358,-0.0116042614866954,0.0084083686683954,-0.0040370557085205,0
0.264,-0.0115197673869962,-0.0116197670340076,0.0072867781941308,-0.0070801137484117,0
0.265,-0.0020819372023141,-0.011912057347811,0.0019606386202384,0.0001906855404211,0
0.266,-9.470022072264108e-05,-0.0065520601920703,0.0035065427789791,-0.0003038324825915,0
0.267,0.0063313355167851,-0.0056940101211624,-0.0046970554142135,-0.0055828354924,0
0.268,0.0070025877509135,-0.0030866218910647,-0.0057311516479919,-0.0006290795758288,0
0.269,0.0022081161890783,-0.0018695356031765,-0.0071831229699732,0.0034579691025836,0
0.27,0.0042671897208427,0.0031283191366684,-0.0051487016977351,0.0146555092386427,0
0.271,0.0055167807355071,0.0003431845134979,-0.0046189865526868,0.010555693626543,0
0.272,0.0024845429491737,-7.128114817216212e-05,-0.0055047976523061,0.0086585272098864,0
0.273,0.0113789642159348,-0.0003185269018115,-0.004244398685761,0.0113610588251429,0
0.274,0.0076672561124977,-0.0004742587341536,-0.0027184534812722,0.0082168851369699,0
0.275,0.0068591939008785,-0.0011558800550241,0.0013691977226523,0.0065199334116147,0
0.276,-0.0048326219235909,0.0008439994341742,-0.0009903074677399,0.0039171827634492,0
0.277,0.000875593116615,-0.0013780720032953,-0.0031576871806898,-0.0008160739646633,0
0.278,0.0103861969901301,0.001193491659658,0.0029278905071472,-0.0061852843241088,0
0.279,0.0184223517989616,0.0052543409689341,0.0008281692186203,-0.005237835263773,0
0.28,0.0135681287175289,0.0115225997258345,0.0014120777836519,0.0029570976087012,0
0.281,0.0199396522040919,0.0119920275884453,-0.0020416151848427,-0.0162415744083377,0
0.28200000000000003,0.020414417647672,0.0082606062406923,0.0013657556398005,-0.0200644534851244,0
0.28300000000000003,0.0263121723338126,0.0058614817143073,0.0011163582102965,-0.0148423586212596,0
0.28400000000000003,0.0188860858677336,0.0002294430918715,0.001533478523976,-0.0086533254646444,0
0.28500000000000003,0.0199624464897179,-0.008842516236247,0.0026687517314468,-0.0044854704260283,0
0.28600000000000003,0.0187858618442993,-0.0094913156591561,-0.0028683172390317,-0.007853254043009,0
0.28700000000000003,0.0082643298920589,-0.0031518923456647,-0.0022988354004404,-0.0075395598308535,0
0.28800000000000003,0.0103283991428093,0.0012780306854857,0.0042735180886804,-0.0039717452638017,0
0.289,0.0118446135528949,0.0019847886735359,0.0021405002379241,-0.0041226902091495,0
0.29,-0.0108676537444407,0.0113985765602274,-0.0018178648764235,0.0056642501690773,0
0.291,-0.0094437683963204,0.0152337686029905,0.0021460574831323,0.0050223771003857,0
0.292,-0.0013216583557379,0.0157136405906997,0.0069259431055882,0.0104488139438905,0
0.293,-0.0026756612624806,0.0091892353099824,0.0016291639559164,-0.001063574570102,0
0.294,-0.0230874937007121,0.0143994546201023,0.0063101057700601,-0.0031770512839745,0
0.295,-0.0182812912082214,0.0126899918511506,0.008895535965487,-0.0014163378151667,0
0.296,-0.0057971010552304,0.0156675337018786,0.0089555711946003,-0.0020842539024931,0
0.297,0.0027475801726359,0.0107198505462415,0.0028355561087646,0.0018663766703925,0
0.298,0.0033546286690115,0.011212128959306,0.0024706653527829,0.0058202440311432,0
0.299,0.0049326982755208,0.0083796025722441,0.0045724674816962,-0.0001641374957085,0
0.3,0.0032709819287624,0.0086502070437763,0.0027100843721835,-0.000963679881339,0
0.301,0.0037682013429268,0.0099103025927899,-0.0007869411812887,0.0048902534148695,0
0.302,0.0036702959858957,0.0081797546672888,-0.0001631819667247,0.0206966925326758,0
0.303,-0.00490549506913,-0.0036229770325143,-0.0037130300624601,0.0039148882454531,0
0.304,-0.006529112841338,-0.0054514343595808,-0.0071648928068557,-0.0057099444863193,0
0.305,-0.0038621521131272,-0.0052465468940919,-0.0007511739111621,0.0031169120879249,0
0.306,-0.0063903663248808,-0.0056391435423174,0.0012989156890813,0.0012826827151251,0
0.307,-0.0056950523162977,-0.0042485630958377,-0.0017423757377175,0.0016920541570607,0
0.308,-0.0019964197298201,-0.0049485680699522,-0.0017438773341638,0.0052245844768214,0
0.309,-0.002443422411842,-0.0012527990005963,0.004039318075225,0.0047541210988845,0
0.31,-0.0028299415816193,-0.0010685936763445,0.0023253708397547,0.001052913310055,0
0.311,-0.000489322486048,0.0001480332603266,0.0035780967637541,-0.0006004638068698,0
0.312,0.0077632802073584,0.0027544051714989,0.0031268295340096,-0.0011112212122283,0
0.313,0.0090856588347053,0.007919619393776,-0.0033554407530881,0.0002633050417881,0
0.314,0.008360719129133,0.00913374022336,-0.007872952296624,-0.000447030016044,0
0.315,0.0094388216475006,0.0065072034453873,-0.0074264125726082,0.0049445624437144,0
0.316,0.0087383413040725,0.0053252233569145,-0.0040804920958532,0.0062322311176599,0
0.317,0.0135963458558652,0.0034501988347095,-0.0049566067735809,0.0021426129535295,0
0.318,0.0093176690673212,-0.0095370324707291,-0.0088708313664062,-0.0024344853462102,0
0.319,0.0058180306400267,-0.0156789828906524,-0.0101545171061158,-0.0021800362124472,0
0.32,0.0002205157101663,-0.0141330448679387,-0.0081457580357116,0.0007259103049277,0
0.321,-0.0091831461115414,-0.0172513643072719,-0.0078148001937364,-0.0027370753291624,0
0.322,-0.0154170272203931,-0.024019032969179,-0.0094746373265137,-0.0049426028346655,0
0.323,-0.0169128840130546,-0.0219134011921424,-0.0072677071542323,-0.0003735666503434,0
0.324,-0.0154127034416958,-0.0172639676965902,-0.0017184582764582,-0.0017957853391839,0
0.325,-0.0113950046684608,-0.0039078745115911,-0.003154799624182,-0.0030217188558554,0
0.326,-0.0211658184429706,0.0111998204467151,-0.000461173697657,0.0007491739976403,0
0.327,-0.0236696531609708,0.0301741316077781,0.0033051496070081,-0.0004338989583143,0
0.328,-0.018545595809266,0.0200754550773708,0.0036553642129439,-0.0017377225617523,0
0.329,-0.0126963392521826,0.0103859389584937,0.0014239760626266,-0.0055173881584352,0
0.33,-0.0092332875404007,0.0062163239171487,0.0002561947249896,-0.0073311745250082,0
0.331,-0.0044857985564114,0.007643835507054,-0.0008277437336701,-0.0007980817008624,0
0.332,-0.0080028235475043,0.0051843118010642,-0.0002746314891967,-0.0002635860210079,0
0.333,-0.0006372242610592,-5.83634221186193e-05,0.0031896443237737,0.0015933746669127,0
0.334,0.0042755313111907,-0.0104846506957378,0.0009563772653229,0.0058026166619737,0
0.335,0.0020916936706639,-0.0165401795620315,0.0065234888497191,0.0011930538903653,0
0.336,0.0061733427655438,-0.0173216919084594,0.0003178669952974,0.003500384472747,0
0.337,0.0045865464915065,-0.0103741596286019,-0.0005682591645209,-0.0005516211172249,0
0.338,0.0121800372333236,-0.0108616245433222,-0.0025505342672035,-0.0003799438622122,0
0.339,0.0179454397751347,-0.00770080855307,-0.0024507133704428,0.001431073529984,0
0.34,0.0157027230097252,-0.0049909486305921,5.850440044210742e-05,0.0016316427650841,0
0.341,0.0177615314683531,-0.0056191120551792,-0.0013250097427135,0.0016561387954693,0
0.342,0.0140966774465449,-0.0107182513721595,0.000139295821985,0.0052629359814513,0
0.343,0.0097014612605434,-0.0073578946755517,0.0060655328268404,0.011861049855862,0
0.34400000000000003,0.004605384860759,-0.0034137494467244,0.0100654923527413,0.0180594809333092,0
0.34500000000000003,0.0166901064165786,0.0016201671467159,0.0068695401386397,0.0120936214397942,0
0.34600000000000003,0.005833942550368,-0.0016391673634245,0.009968849210048,0.0057927203708817,0
0.34700000000000003,-0.007077324751894,-0.0030421961095893,0.0034127007909546,0.002696975704133,0
0.34800000000000003,-0.0290354549344488,-0.0071921066455322,0.0056388539736582,0.0035388218205783,0
0.34900000000000003,-0.0528829390584665,-0.006288916773565,0.00352154572111,-0.000707194213081,0
0.35000000000000003,-0.0303371090391014,-0.0049301048794382,0.002683480392244,-0.0043280925138933,0
0.35100000000000003,0.0044293461222625,-0.0171690037415268,-0.0101210441684767,-0.0083768462243635,0
0.352,0.0129123110875331,-0.0133448210261961,-0.0069854898725571,-0.0206832253959204,0
0.353,0.0178755634725139,-0.0111353027493853,-0.0022108107280946,-0.0211778936155601,0
0.354,0.020715619952674,-0.0077566727648593,-0.0061859260822988,-0.0123414556139811,0
0.355,0.0130020021032296,-0.0062703048932863,-0.0033673932878873,-0.0017875380755485,0
0.356,-0.01480123290475,0.0060964448642142,-0.0072088641453943,0.004448074721023,0
0.357,0.0028426153670176,0.0037889224773567,-0.0020485279834109,0.0067258882541323,0
0.358,0.0003253937722486,0.0053367671133527,0.0012968823101485,0.0007679648158295,0
0.359,-0.0193347520969816,0.0087682280382693,0.0042512601162118,-0.0015032670874978,0
0.36,-0.0346063810227195,0.0121764297304161,0.0039101325874193,-0.0001906372471489,0
0.361,-0.0312709323989594,0.0156097250615446,0.0017519416246923,6.198067460557268e-05,0
0.362,-0.0267107922032297,0.013673350222793,0.0065282822123852,0.0025005302355298,0
0.363,-0.0471009595527127,0.012504847052563,0.0094324514640059,-0.0003040942128118,0
0.364,-0.0200547076206256,0.0142480640092338,0.006390846946665,0.0003094356978924,0
0.365,-0.0012040113965083,0.0124663352051391,0.0087987657593799,-0.0067700385542539,0
0.366,0.0035573373394907,0.0129174587324077,0.0023402983641193,-0.0094035231324301,0
0.367,0.0113834967315465,0.0077548020904802,0.0005305230791285,-0.0057568872373572,0
0.368,0.0136444373789228,0.0027920480175202,-0.0022827065845743,0.0004838741185293,0
0.369,0.0175590937702019,-0.0042688142669103,-0.0013701338842845,0.0033258311578727,0
0.37,0.0136129296790907,-0.0094890456287,0.003626868835346,0.0175652789187833,0
0.371,0.0153204102951442,-0.0069229220204826,0.00404593159438,0.0320066516185201,0
0.372,0.020544590056234,-0.0062271323819829,-0.0070832900810951,0.0098767630443137,0
0.373,0.0164856912466938,-0.0019484379491045,-0.0056161944377308,0.0058969775559911,0
0.374,0.0111870034584203,-0.0038283802147968,-0.0036906475410599,-0.0005753818697783,0
0.375,0.0121835992224739,-0.0049428879109238,-0.0025172070194981,-0.0077397951475621,0
0.376,0.0136826687181691,-0.0022446036474856,0.0001744205764822,-0.0027189527391319,0
0.377,0.0024723952174768,0.0020317413951233,0.0016608076718788,-0.0049007705000723,0
0.378,-0.0007801961237274,-0.0039625825024769,0.0048167425325513,-0.0023950292095771,0
0.379,-0.005505223802261,-0.0027739060858349,0.0028712807044304,-0.0064713478832198,0
0.38,-0.0060876477628324,-0.003475094434519,0.0022385113359324,-0.0116086003933534,0
0.381,0.0034804913165151,-0.0047601272073493,0.0050100151143062,-0.0046186644273924,0
0.382,0.0074225993997265,0.0017876815232548,0.0018777829122275,-0.0025992311146295,0
0.383,0.0086702882572428,0.0035821476029655,-0.0041114587714323,-0.0050330096259271,0
0.384,0.0124635165667723,0.014232666696683,-0.0051564984458289,0.0006421399981626,0
0.385,0.0101027982331552,0.0132811342015008,-0.0016290665400086,0.0028641771120132,0
0.386,0.0086203595820457,0.0177591045046534,-0.0021692437819428,-0.0018298314293678,0
0.387,0.0049462993097026,0.0134799144333006,-0.0064415080417974,-0.0063291101366949,0
0.388,0.0079250533526499,0.0070653655200406,-0.0015782389927841,-0.0034551292367606,0
0.389,0.0144543617353246,0.0043764327696939,-0.0001198216122012,0.002907121967352,0
0.39,0.0155211935266941,0.0059285987040732,-0.0062401950946302,-0.0008088143920513,0
0.391,0.0135320661468182,0.0026358846252276,-0.0009914992520842,0.0014289861016496,0
0.392,0.008466455007267,-0.0053877747759761,0.0003979088326187,-0.0013377245848936,0
0.393,-0.0034672628925719,-0.0038892185650236,0.004637365806503,0.0030653369313796,0
0.394,-0.0099361201706939,-0.0059432825176971,0.0043173337593241,0.0011807476178057,0
0.395,0.0022709276842657,-0.0042147009752528,0.0049957015168891,-0.0011113687348145,0
0.396,0.0042677793728198,-0.0029013491718208,0.0037177097299628,-0.0101987429352492,0
0.397,0.0077430139509499,-0.004775524275935,-3.214342169605163e-05,-0.0099446432066637,0
0.398,-9.013195646246764e-05,-0.0024856411845377,0.0031974936090891,-0.0066999276250097,0
0.399,-0.0009696341610108,-0.0008062785140999,0.0043752976875556,-0.0073619518503628,0
0.4,0.0024582315297555,-0.0009085561054828,-0.0016815654849226,-0.0045948491124337,0
0.401,-0.0019323221251746,-0.002139833260757,0.0006514742553444,0.0010952109009706,0
0.402,-0.0027197827267977,-0.0057419992866304,-0.0007683262678646,-0.0016288011945352,0
0.403,0.0034516993751805,0.0003938988120233,-0.0010685513950852,-0.0022776900787889,0
0.404,0.0028747734660403,0.0001791427124873,-0.001877625614933,0.0060268421077768,0
0.405,-0.0039440063106984,0.0051000042121038,-0.0052576928073103,0.0026391666468985,0
0.406,-0.0074410080754185,-0.0008099048315864,-0.006011300179703,0.0006048082155822,0
0.40700000000000003,-0.0007130976734155,-0.0025432184356522,-0.002536266658527,0.0038929589148987,0
0.40800000000000003,0.0044780755836837,-0.0012465743777794,-0.0019268754477506,0.0033419366473594,0
0.40900000000000003,0.0065600184630034,0.0026021308951944,-0.0005202048947652,0.0013739088087025,0
0.41000000000000003,0.0033641319528076,-0.0032681729153022,-0.0027109538232614,0.0099893333536603,0
0.41100000000000003,0.0012203567675057,-0.0094092125100045,-0.0006463981073482,0.0074132487161123,0
0.41200000000000003,-0.0037021369947473,-0.0108809546073717,0.0021923091128803,0.005465749430069,0
0.41300000000000003,-0.0050808445368597,-0.0140118755716419,-0.0008004018919286,0.0071628729233121,0
0.41400000000000003,-0.0050208241418682,-0.0078534841407079,0.0004105295492843,0.0054429700416582,0
0.41500000000000004,-0.0014843985536903,-0.0082623087754489,0.0024634222069103,-0.0033406113723397,0
0.41600000000000004,-0.0168137077482514,-0.0027628017125661,0.0019013154848194,-0.0045033083970169,0
0.417,-0.0212346349514517,0.0027296931678636,0.003489026780694,-0.009906416330552,0
0.418,-0.0079990270083376,0.013133815760906,0.0042179403043915,-0.0243539760876593,0
0.419,-0.0047443020979646,0.0344393535476464,0.0068080986705774,-0.0210176343791797,0
0.42,-0.0086234271626101,0.0363370580086888,0.0080257344745061,-0.0094522877814458,0
0.421,-0.0031996892403638,0.0146709126272244,-0.0009558156693238,0.0006291507943185,0
0.422,-0.0019481293479633,0.0057153534784628,-0.0064249856086063,-0.0008263831162792,0
0.423,-0.0032292956421736,0.0009202327869694,-0.0079202730981855,0.0088637187094429,0
0.424,-0.002644929974681,-0.0038766708419351,-0.0050554402532122,0.0207084086170465,0
0.425,-0.003868954893301,-0.0094737282893215,-0.0080583717141952,0.0281041938344844,0
0.426,-0.0072971554252788,-0.0110944163466834,-0.0113081997850947,0.0017633988663787,0
0.427,-0.0048550336616711,-0.01448795998849,-0.0148605443174117,-0.0119164548399579,0
0.428,-0.0022111144201595,-0.0064283751019622,-0.0111707532849673,-0.0093609145522525,0
0.429,-0.0025942722887587,-0.0022053915336299,-0.0023284508016099,-0.0048157824142623,0
0.43,0.0007777562257639,-0.0046429013624679,-0.0008990529548344,-0.0009407099317117,0
0.431,-0.0036250871617155,-0.0097056764954423,0.0057168780030392,0.0049868164362604,0
0.432,-0.0029023390256061,-0.0091744571379066,0.009600624285779,0.0141630775005703,0
0.433,-0.0014246926922799,-0.0071746196288142,0.0081914238216401,0.0133173951054303,0
0.434,-0.004359745886896,-0.011937270323868,0.009608749466201,0.0024120673245712,0
0.435,-0.0022020464208848,-0.0112831600471631,0.0069222407771475,0.0025592448648294,0
0.436,-0.007212578274353,-0.0032875342221058,0.0009408307831576,0.0004945726971742,0
0.437,-0.0041252718995685,0.0011099797045323,5.128410566525009e-05,0.0006652709833218,0
0.438,0.0052337883711077,-0.000101547381424,0.000805084798534,0.0016605191955116,0
0.439,0.0072725347651717,0.000109307505719,0.0007229310566104,0.0019534487600132,0
0.44,0.0065543548698648,0.004230303256282,-0.0035763911717469,0.0025696368542691,0
0.441,0.0090068931718111,-0.0005872412492513,-0.0061206700387043,0.0058101833463007,0
0.442,0.0042480161343267,-0.0087240562228277,-0.0021625039438038,0.0056022905028862,0
0.443,-0.0046861251267747,-0.0083685248873557,-0.0040316261061036,0.0087596827571278,0
0.444,-0.0058574455592351,-0.0132752205015024,-0.0014926994132235,0.0086495254467273,0
0.445,0.0010689074264874,-0.0114371050078985,-0.0018655873566215,0.0027866867693028,0
0.446,0.0033196344163325,-0.0111402428981583,0.0005616396725907,0.0072524702388149,0
0.447,-0.0015190823491241,-0.0087910389562937,0.0035562460100425,0.0074506402934989,0
0.448,-0.0027840091798185,-0.0055229373489388,0.0030014569074801,0.0040382427533607,0
0.449,-0.002912118563583,-0.0069770575983212,0.0037395885807752,0.0035671337563511,0
0.45,0.001949497956038,-0.0059089256733657,0.0075548215749259,-0.0002512990516157,0
0.451,-0.0049415961475613,-0.0098251919262041,0.0076787220410071,-0.0073168641667068,0
0.452,-0.0042231015582325,-0.0060924934455913,0.0025029033160752,-0.0050574468627932,0
0.453,-0.0083010930697641,-0.0078717092646085,0.0021295828079397,-0.0152475662281306,0
0.454,-0.0108024870359729,-0.0033443387602783,-0.0009537386401015,-0.026832037531951,0
0.455,-0.0050634862172648,0.0058471207993299,0.0020039981132503,-0.0205271434261521,0
0.456,0.0009588993597166,0.0126850522480422,-0.0021944254236281,-0.0121062560518807,0
0.457,0.003943551961246,0.0138811137651777,-0.0071034506731166,-0.0079031919407526,0
0.458,0.0056339041991928,0.0106730698318999,-0.0055700831246034,-0.004999720857811,0
0.459,0.0015595574847559,0.0021981282208173,-0.0003710585705729,-0.0036087495046575,0
0.46,-0.0055208885952897,0.0051935207992649,-0.0057762148012507,0.0005832429589379,0
0.461,-0.009656708072033,0.0060881995882991,0.0022246411419388,0.0029387876725659,0
0.462,-0.0002751197918844,0.0110789376931079,0.0004900593967164,0.0074366254892108,0
0.463,0.003804526261873,0.0148635239836411,0.0040231080563663,0.0183950472264065,0
0.464,-0.0112491250418618,0.0111371831043492,0.0027865973714118,0.0053064511883441,0
0.465,-0.0261674864127433,0.0112216318727091,0.0014199494254318,-0.0003587495466971,0
0.466,-0.0044929382641466,0.0092894476633251,0.0063164879659521,-0.0022915396094617,0
0.467,0.0055374847525037,0.0116788860325111,0.0039271781572483,-0.0057576666572839,0
0.468,0.012117249471136,0.0140333053139271,-0.0001442607106784,-0.0048630363139017,0
0.46900000000000003,0.0099368515762762,0.009300558604014,-0.0013588495190888,-0.0061520810244318,0
0.47000000000000003,0.0108111744532047,0.0114627557129726,-0.001687455928138,-0.001779249858024,0
0.47100000000000003,0.0123334537734765,0.0133661838386583,-0.0006415856099231,0.0014544033204929,0
0.47200000000000003,0.0154531257110694,0.0179325122838291,0.0010242285324917,-0.0009499559123562,0
0.47300000000000003,0.0247779002933014,0.018960388940974,-0.001534520758139,-0.0027156990142167,0
0.47400000000000003,0.0321123431493603,0.0218003381124355,-0.0057901526281567,0.0021909514630034,0
0.47500000000000003,0.0220054819473833,0.0216138235364834,-0.0010658044704686,0.0067057190070174,0
0.47600000000000003,0.0128136407875264,0.020757604475892,-0.0031954418632962,0.0048530145372819,0
0.47700000000000004,0.0119720221731786,0.0187085079666941,-0.0011186738281377,0.0072640755741165,0
0.47800000000000004,0.011321512479446,0.0145273549985336,0.0002716521772364,0.007295349391408,0
0.47900000000000004,0.003346437411699,0.009538095871279,0.0091956509266166,0.0072029707337395,0
0.48,-0.0260540141351339,0.0044198022378972,0.0060582144939931,0.0025569202768158,0
0.481,-0.0167090792961906,0.0023975268443669,0.0035850084955485,-0.0005976501491636,0
0.482,-0.0169077613044065,-0.000767655379883,0.0027355191993442,-0.0102031306071671,0
0.483,-0.0156031471912504,-0.0050612590848211,0.0017952438792311,-0.001445087539934,0
0.484,-0.0047997613197709,-0.0035091273664124,-0.0020186617949738,-0.0055404410811957,0
0.485,-0.0005370334755759,-0.0094554557450498,-0.0060766013281488,-0.0016868351603405,0
0.486,0.0061776938610746,-0.0077189781608269,0.0010634904094005,0.0002805312151538,0
0.487,-0.003684022183828,-0.0044628757805153,-0.0006537299873922,-0.0036884696236892,0
0.488,-0.0143895889630069,-0.0100304992993837,0.0006360190536711,-0.0031639969615393,0
0.489,-0.0119164133112776,-0.0111465923893439,-0.0014248379081521,-0.0043242632696053,0
0.49,0.0003866560279943,-0.0018887287589237,-0.0036741896290518,-0.0044537099422439,0
0.491,0.0075890782448408,-0.0073610156133176,-0.0077075332649463,-0.0061101035751193,0
0.492,0.0098195338065299,-0.007794757296621,-0.0036949935735815,0.0008719148595938,0
0.493,0.0084347712021321,-0.0160386716930827,-0.0024225625374413,0.0021953164987806,0
0.494,0.0052193714901354,-0.0159544557116613,-0.0001013330129656,0.0010959958192995,0
0.495,-0.0006444226112794,-0.0118953036515772,0.0046722121018852,4.243238481666854e-05,0
0.496,-0.0031330049491771,-0.0144021041745578,0.0009051331688814,-0.0003458065597159,0
0.497,0.0013042620031232,-0.0190816916339349,0.0025654826109146,-0.0006779424877381,0
0.498,-0.0006924694097611,-0.016433508591481,-0.0002875241424995,-0.0021863785525927,0
0.499,0.0010643233253548,-0.0082769202291377,-0.0019280400234414,0.0027455968557509,0
0.5,0.0042965049392776,-0.0097890454688649,-0.0009583595573029,0.008894103850447,0
0.501,0.0034465950548113,-0.0188082257320538,-0.0025222777506574,0.0107074304464807,0
0.502,0.0076396239231499,-0.018949709623504,-0.0082037929669629,0.0125162906586818,0
0.503,0.0056078972316157,-0.0140499036912865,-0.0071888901317369,0.0055611665800612,0
0.504,-1.26361870695424e-05,-0.0120446627591078,0.0011990994138395,0.0084570978308772,0
0.505,-0.0028203235295143,3.404569820449673e-05,-0.0012664112305082,0.0024232336785436,0
0.506,0.0023601521041623,0.0021523951378252,0.0018642998875897,-0.0058207528986742,0
0.507,0.0107072899874502,0.0055480962443494,0.0004861803657506,0.0002559646440881,0
0.508,0.0056679001340136,0.0089610414209202,0.0043313767456036,-0.0167001216637986,0
0.509,0.0055547107357977,0.028913943851637,0.002261636735181,-0.0262114589747623,0
0.51,0.0085053742099267,0.033756353813809,0.002694450980682,-0.0067115351958011,0
0.511,0.0106298012819021,0.0166506254502159,0.0040333673145115,0.0090660338442484,0
0.512,0.0061604478041395,-0.0071317987513924,-0.0012407720243043,-0.0050933249210346,0
0.513,0.0104797209951374,-0.0054128811646271,-0.001143778415341,-0.006422573045063,0
0.514,0.0136500905547949,-0.0029089453240741,-0.0008759255633065,-0.005307132180734,0
0.515,-0.004040104002255,-0.0057595279574264,7.677621994501232e-05,-0.0018695082855604,0
0.516,-0.0011102427141389,-0.0103467557655295,-0.0014585324857396,0.0035286045260943,0
0.517,0.0034433170701399,-0.0070662761463944,-0.0012889722609771,-0.0001723431007214,0
0.518,-0.0033046362522081,-0.010160925186583,-0.002523321017315,0.0016823899236104,0
0.519,-0.0093292911236433,-0.0138950563449836,-0.0034352930919279,0.0137710565572622,0
0.52,-0.0061360320745868,-0.0118835205284277,-0.0070395767856369,0.0132669183373255,0
0.521,0.0025503783078526,-0.0049697012952253,-0.0028270897160298,0.0093985870449801,0
0.522,0.0024738553822627,-0.0048606339522974,-0.0017551324319462,0.0053437109674931,0
0.523,-0.006434916810767,-0.0077586766807082,-0.0009557728010561,0.0041845598577675,0
0.524,-0.0116323815295406,-0.0044372223181259,-0.0032636329836571,0.0045058701664394,0
0.525,-0.0069903846003107,-0.0030590507771615,0.0004585642179508,0.0027161746973221,0
0.526,-0.0039851122241207,-0.007364688580657,0.0051956868269003,-0.0016430063703295,0
0.527,-0.0053011451283897,-0.0122540166971755,0.0045871446230692,0.0021745457458624,0
0.528,-0.012459043179164,-0.0207139282713861,0.0072721075580816,0.0083847523741798,0
0.529,-0.0188064297746304,-0.0254050469914293,0.0051564569734722,0.0020384331792641,0
0.53,-0.014484811251132,-0.0233403935211096,0.0005491621914664,-0.0009171729682128,0
0.531,-0.0134109264722755,-0.0142829547856489,0.0036787037084467,0.0018717577277508,0
0.532,-0.0156778490209852,-0.0139112003313336,0.0022321616223951,0.0028193510127779,0
0.533,-0.0172563001556834,-0.0109775823800063,0.0023321978801025,0.0011492852398806,0
0.534,-0.0128769263589542,-0.0064315883372681,0.0016258954233346,0.0052467038459186,0
0.535,-0.0051245192080008,0.0107957226357477,-0.0007390115224925,0.0018143458563858,0
0.536,-0.0039116250032869,0.0127946493782584,-0.0045646852540211,-0.0011069046485909,0
0.537,-0.0091186870358657,0.008093252209839,-0.0068327078487232,0.0028479358667085,0
0.538,-0.0092003700401278,0.0058415799241292,-0.0030213603638075,0.0036088859188966,0
0.539,-0.0086798022840664,0.0103584808626032,0.0025763717322703,0.0019930000800191,0
0.54,-0.0122992151951945,0.0165086725925032,0.003512249198383,-1.165397825268229e-05,0
0.541,0.0157350500160442,0.0222568643294345,0.003445491802645,0.0062375329752347,0
0.542,0.0201430732300084,0.0152665907361978,0.0082875026768819,-0.0045458023651461,0
0.543,0.0234257958059334,0.0210263528992209,0.0018133689183251,-0.0087513908653139,0
0.544,0.0166139669389791,0.0212106204035112,0.0059442059399808,-0.0126117967001743,0
0.545,0.0081782965987274,0.0175305169295545,0.007102472894333,-0.0063461574273589,0
0.546,-0.0194002693926321,0.0156418601685338,0.004459564843365,-0.0068171671150833,0
0.547,-0.0143976343732524,0.0157074875951632,0.0040878889607647,-0.0034430412148846,0
0.548,-0.0165298970204069,0.0180560068130355,0.0042155908787635,-0.0006002541361881,0
0.549,-0.0508216582880744,0.0128963577302344,0.0021046755204326,0.0003334121810037,0
0.55,-0.0460997675965024,0.0076827166098862,-0.0018634571481455,0.0001200408406767,0
0.551,-0.0115919165598784,0.0035234873541884,-0.0034948442184042,-0.0029656487275307,0
0.552,0.0052206907050524,0.0081164686046881,-0.0078925851652017,-0.0009229640648201,0
0.553,0.009865301300256,0.0086797813653179,-0.0060570201816385,-0.0002743748057869,0
0.554,0.0061676263384838,0.0114831125773673,-0.0042021476830583,0.0027244317451596,0
0.555,0.0120537883945149,0.0075337703563923,-0.0084961582083867,0.0013035652072014,0
0.556,0.0160047012445091,0.0061915062800523,-0.0001776440262704,0.0011687266595835,0
0.557,0.0004664448424796,0.0074841222061983,0.0009785041209954,0.0024222780739718,0
0.558,0.0033861652889268,0.0113845763874124,0.0016307809451837,0.0061839925709452,0
0.559,0.0094287367186059,0.0073909993996798,0.0079994528621384,0.0003581126038463,0
0.56,0.0147092118501079,0.010482948298827,0.0084252996683032,0.0003476581648711,0
0.561,0.0237625678673863,0.0064923701941577,0.0083180422011541,-0.0044206080412273,0
0.562,0.0221794713174214,0.0045492283814194,0.0052378485027478,-0.0017571442661771,0
0.5630000000000001,0.0168009547465367,0.0020189005679348,0.0014323012491866,-0.0118215822710041,0
0.5640000000000001,0.0195835713791515,-0.0095923663297578,-0.004617839992413,-0.0012458821364815,0
0.5650000000000001,0.0224974615895445,-0.0164368156768208,-0.0042519931525157,0.004869310572773,0
0.5660000000000001,0.0231901133458656,-0.0158044361484523,-0.0037517910317755,-0.0068150337433519,0
0.5670000000000001,0.0202737010185245,-0.0137604964017137,-0.0068313853719757,-0.0080626245066098,0
0.5680000000000001,0.0122826660047455,-0.0138745822074747,-0.0058578834663224,-0.0109553097684146,0
0.5690000000000001,0.0158915868527585,-0.0114273023426976,-0.0063053109341013,-0.0104405496527113,0
0.5700000000000001,0.0080481852886487,-0.0175785288160239,-0.0072494860945907,-0.0080964167802867,0
0.5710000000000001,0.0085735065008679,-0.0142975431156069,-0.0065303140138335,0.0023798146363059,0
0.5720000000000001,0.0055736654327856,0.0003140267041362,-0.0016610697156213,0.0010407433705043,0
0.5730000000000001,-0.0084689553852236,0.0299081179065182,-0.0037282313436714,-0.0012113010306968,0
0.5740000000000001,-0.0381978215384237,0.0213936732038736,-0.0032656006842674,0.0004593905949124,0
0.5750000000000001,-0.02756798220414,0.0032916839664226,-0.0019705906243819,-0.0034697221432976,0
0.5760000000000001,-0.0052914198161708,-0.0017357392678849,0.0031022133842264,-0.0006688755655007,0
0.577,0.0012852281836684,-0.0021736219934993,0.002665993832506,-0.003466173267309,0
0.578,0.0056368087268063,0.0049201322881413,0.0054040228188726,-0.0032539992148481,0
0.579,0.0024315519069215,0.0015028100494936,0.0079175147519799,-0.005889108216587,0
0.58,0.0045249581810332,-0.0071028226446722,0.0102492738912393,0.0078362290579288,0
0.581,0.0043872080946409,-0.0147988875402897,0.0054892725239749,0.0085768525012768,0
0.582,0.0001189346402582,-0.0119327699933482,0.0019562738217352,0.0085558685792041,0
0.583,-0.0041703948518275,-0.0145709275643576,0.007687298906068,0.0057810848471925,0
0.584,0.0018344047554863,-0.0193711564173224,0.0062632385927683,0.0215706830972321,0
0.585,-0.000623364973981,-0.0114667553564853,0.0029738824780187,0.0120015294370229,0
0.586,0.0006139889423445,-0.0114687432114158,-0.0048856066372307,0.0025555097227767,0
0.587,0.0013008592541643,-0.0072790170657531,-0.0054850188519107,-0.0079783346747927,0
0.588,0.000216211980113,-0.0029398160354361,-0.0058768739077284,-0.0135892464014921,0
0.589,-0.0001251169254433,0.0004506632627404,-0.0051020846655138,-0.0166510221883236,0
0.59,-0.0025080828836739,0.0035624807836116,-0.0030256150857468,-0.0078264757707118,0
0.591,0.0017816050165788,0.0053987472941041,-0.0026079242713674,-0.0080885382712658,0
0.592,0.0025665966031691,-0.0002851327586388,-0.0069076776411462,-0.0125050649293063,0
0.593,0.005618116026673,-0.0007484766140079,0.0010421717198117,-0.0147606493111211,0
0.594,0.0113287507493182,-0.000427725642716,-0.001520192354737,-0.0054803277386259,0
0.595,0.011126250400728,-0.0002964221219983,0.002208864963432,-1.498303690399696e-05,0
0.596,0.0122905020670214,0.0076974297484207,0.0012707522491545,0.0054721364051562,0
0.597,0.0105998683685061,0.0008579803766942,0.0006890803442721,0.0059202852580406,0
0.598,0.0098326277068025,-0.0040146013649717,0.0012581209247183,0.0125861187042114,0
0.599,0.0090558265754353,-0.0053896601143436,0.0042319899036946,0.0131108240657309,0
0.6,0.0075669634524009,-0.0055607927366472,0.0015392865570082,0.0079702147070198,0
0.601,-0.0026829481203153,0.0001511195340016,-0.0108874550433271,0.003358057581243,0
0.602,-0.0072305588287173,0.0022143199592545,-0.0133474351102226,0.0009017374660286,0
0.603,-0.0171317452245924,0.0011378950994658,-0.0132638734400187,0.0032422233385907,0
0.604,-0.0044166393389175,0.0052468395192714,-0.0061842616097709,0.0065375107298093,0
0.605,-0.0104819978348004,0.0120653778536998,-0.0070608329885479,0.0062481144068655,0
0.606,-0.0186959546665627,0.0144072919386369,-0.0060089582469128,0.0031819958032156,0
0.607,-0.0181894443809867,0.0145707310929024,-0.0028292655336571,0.0041593765380562,0
0.608,-0.0071559108664951,0.0064229794719773,0.0016752286034056,0.0047919809427826,0
0.609,-0.0049594632825656,0.0003032830268289,0.0026168152880576,0.0137753403469945,0
0.61,-0.0060469454028527,-0.0004215746303043,0.0066087483905739,0.0116216446158429,0
0.611,-0.0026249251772662,0.0001467842329116,0.0086808542353183,0.0011707607384811,0
0.612,-0.0028811857072068,0.004526254481761,0.0063564243901062,-0.000914742287298,0
0.613,-0.0210816276261824,0.0015933911456442,0.0066924407559925,-0.0012732172410658,0
0.614,-0.0212739268023284,-0.0046768084017858,0.0040259828461513,-0.0041296760436457,0
0.615,-0.0040412854107836,-0.0018462310875229,0.0029244868097187,-0.0035192374880876,0
0.616,-0.0033097608261839,-0.0091280203485506,-0.0018030035947165,-0.0030339775348163,0
0.617,-0.0061820422918477,-0.0118581774539278,-0.0105084205128143,-0.0020936452560805,0
0.618,-0.0080581316951066,-0.0121680704265773,-0.0095323560529049,-0.0038444682614447,0
0.619,-0.0101597526805252,-0.0167765958842742,-0.0051575605198699,-0.0001311847406928,0
0.62,-0.008033368627344,-0.0081001937431554,-0.0097373646177773,0.0027263549554997,0
0.621,-0.0030267450333217,-0.0034221850386409,-0.0059487473088188,0.0034491959910354,0
0.622,0.0036644554251486,-0.0008263516675602,-0.000910748465771,0.0023119265025662,0
0.623,-0.0119052261608721,0.0050013994044941,0.0050294365001092,-0.0003085969657012,0
0.624,-0.0062146731017898,-0.0032338548616492,0.0014664773113123,-0.0025495953572931,0
0.625,0.0026166558163691,-0.0011744705317414,0.0041350282783343,-0.0040350563003871,0
0.626,0.0012521610472194,-0.0030221892133635,0.0068170965817997,-0.0043865985207505,0
0.627,0.0066591050119764,0.0026170666288391,0.0077709698316718,-0.0083932278485081,0
0.628,-0.0010327209468706,-0.0041437450291864,0.0093681205030538,-0.0051951131041594,0
0.629,0.0006082786400375,-0.0051190822827444,0.0091800069098488,0.0016994257977103,0
0.63,0.01203520573408,-0.0065229766439585,0.0153068882832817,0.010555475491931,0
0.631,0.0046303144001321,-0.0158328802384854,0.009568228356754,0.005473904413744,0
0.632,0.0046045984119404,-0.0088908622145108,0.0044126825353329,0.0007077749247002,0
0.633,0.0084804926474415,-0.0100202237828114,0.0017757639509122,-0.0063658624710689,0
0.634,0.0066974773111585,-0.0136639173885384,0.0007723922931704,-0.0029778538832272,0
0.635,0.0043060657301164,-0.0080239051156745,-0.0037972928601632,-0.0024057355629542,0
0.636,0.0150828218510452,0.004764373325511,-0.0050058042447713,-0.0011714712324891,0
0.637,0.0048647215578893,0.0081667368398929,0.0001496203035922,0.0060241276251767,0
0.638,-0.0211972165722659,0.0069337949654334,0.0017395723945049,0.0041508899956393,0
0.639,-0.0213565599256457,0.0027603590496825,-0.0064884211335868,0.0009061237498061,0
0.64,-0.0020447912501819,0.0114206298151161,-0.0036913906646797,-0.0028749118116406,0
0.641,-0.0079500225605841,0.0149401379008455,-0.0024207251801025,-0.0014962125525627,0
0.642,-0.0104565279026068,0.0298908099977003,-0.0013016194459561,-0.0011714813326743,0
0.643,0.0062531376024872,0.0298163601939747,0.0009560114334052,-0.0011590808634834,0
0.644,-0.0020726255235743,0.0093794160483449,0.0005802009308275,-0.0003399640151607,0
0.645,-0.0173473462419019,0.0062109338618812,0.0035704243092904,-0.0009924208046712,0
0.646,-0.0210537565189323,0.0091852997186224,0.0053838647358472,-0.0012085926585056,0
0.647,0.0015583858785333,0.0017841067836614,0.0058121764612915,0.0039643758820005,0
0.648,0.0074780384046287,0.0046040519528596,0.0045601646111759,0.0061223361225204,0
0.649,0.011622462966324,0.0020365398375642,0.0024240397935435,0.004321121071852,0
0.65,0.0161434214170026,-0.0019204399390407,0.0033244173379558,0.0063795503765541,0
0.651,0.016357426068308,-0.0058684340026325,-0.0011765400117562,0.0011279774794019,0
0.652,0.0149541873860303,-0.0048456511501871,-0.000388988940419,-0.0101954471107333,0
0.653,0.0101030173958726,-0.0060217759282147,-0.0017003521847271,-0.0041609403254426,0
0.654,0.0102040617629869,-0.005179705924398,-0.0051147380001751,-0.0113412452065127,0
0.655,0.0077492569745084,-0.0029425733485115,-0.0049624079790776,-0.0174462209493872,0
0.656,0.0064156955148964,-0.0035386683915757,-0.0020029428810674,0.0039956317799392,0
0.657,0.0071867669481218,-0.0007444796201533,-0.0023321190884262,-0.0037391735975276,0
0.658,0.0102365965612355,-0.0013442041180842,-0.0072154749031466,-0.0078792158690314,0
0.659,0.0126161898036176,0.0039156134367039,-0.00173465834015,-0.0042860406100886,0
0.66,0.0118924455642148,0.0011092190806352,0.0043612308716089,-0.0027892730696499,0
0.661,0.0111028009069453,-0.0050088696271668,0.0028090027224308,-0.0006823751058706,0
0.662,0.0085757695880804,0.002915009598036,0.004873241132418,9.888549244893448e-05,0
0.663,0.0131049074705453,0.0038539326173249,0.0017555713106915,0.0031793916520884,0
0.664,0.0196274073839491,0.0034900983257988,0.0029115520238654,0.0024799543467598,0
0.665,0.0157400201380229,0.0013777380440982,0.0010728511258653,0.0019069117244175,0
0.666,0.013456103624864,0.0053461000968407,0.0006714153295469,0.0031201847986947,0
0.667,0.0042694568978806,0.0163196804849355,0.0005834688589557,0.0036284023051229,0
0.668,-0.0005559276636721,0.0150146151578055,-0.0011001242582361,-0.0010844691429615,0
0.669,-0.006623532129498,0.0112873981907422,-0.0037800440596329,-0.0018388137432015,0
0.67,-0.0121142920159746,0.0104137866618944,-0.0089850832694931,-0.0003057042011189,0
0.671,-0.0073470387913457,0.0023848592092509,-0.0102549023266653,0.0013097389375242,0
0.672,-0.0030117354653257,-0.0001732806377427,-0.0072153375358717,0.0016878559063537,0
0.673,-4.943750474306011e-05,0.0025019238691852,-0.0058251069924334,0.0049059117466175,0
0.674,0.0045358606976348,-0.0033018245737417,-0.0088890663525203,0.0046674854547433,0
0.675,0.0034640092243715,-0.0049436312532815,-0.0067258328799985,0.0015604446934729,0
0.676,-0.0011385768752057,-0.0068527795507617,-0.0008013353659137,0.0027169355937483,0
0.677,-0.0023119401415971,-0.0034033484712847,-0.0006031039449761,0.0044117358367668,0
0.678,-0.0057897689652002,-0.0019503941408984,-0.0034368009216503,-1.812872274959893e-06,0
0.679,-0.0020521027836947,-0.0025276331759988,0.0020513382553626,0.0017568863676692,0
0.68,-0.0182174928362547,-0.0085896004752772,0.0021516635288933,-8.493433170077873e-05,0
0.681,-0.0148285271220251,-0.0070353326610139,0.0076203417732524,-0.0011195958194076,0
0.682,-0.0124199406879873,-0.0007774773474596,0.0052807434614417,-0.0032290803067043,0
0.683,-0.0144053596691321,0.0021011919931878,0.0070269705174087,-0.0023967498574066,0
0.684,-0.018667270186278,-0.0002651131125623,0.0099293170309876,-0.0024220795653784,0
0.685,-0.012852666910419,-0.0006295010237107,0.0076621220687182,-0.0049217275967426,0
0.686,-0.0135968987553494,-0.0054346010791798,0.0016307787870848,-0.0012975832534391,0
0.687,-0.008048274937991,0.0034456698955475,-0.0031839354834282,-0.0044208772625895,0
0.6880000000000001,-0.003792248557561,0.0092436519554562,-0.0078430008607356,0.0007506143852018,0
0.6890000000000001,-0.0033025725973397,-0.0022658695697275,-0.006149312826946,0.0007825510837255,0
0.6900000000000001,0.0028815156389894,-0.0061644422505935,0.0027439435408423,-0.0008571252602471,0
0.6910000000000001,-0.0027461363567701,-0.0142799090270323,7.47186139283576e-05,-0.0012088769271299,0
0.6920000000000001,0.0016744607612177,-0.0162002164518889,0.0052395811006595,0.0069181007666,0
0.6930000000000001,0.0081794190730763,-0.0061043036626909,0.0050671854367202,0.0070225652490323,0
0.6940000000000001,0.0091192986554797,-0.0012704526759788,0.010711385151529,0.0071685617581823,0
0.6950000000000001,0.0102340437649826,0.0003608710083797,0.0046150473849399,0.0060594102894612,0
0.6960000000000001,0.0051306496866492,-0.0069492524024275,0.0096773863827954,-0.0003978182852868,0
0.6970000000000001,-0.0052423159831592,-0.0110395163683649,0.0101292965364328,0.0028204589680676,0
0.6980000000000001,-0.0065977918718486,-0.0104395995216373,0.0136577524564654,0.0011333706797173,0
0.6990000000000001,-0.0050876836458528,-0.0231856695428652,0.01223915811799,-0.0022521231273564,0
0.7000000000000001,-0.004919363592548,-0.0205419688249193,0.003867695460094,-0.0088079198479142,0
0.7010000000000001,-0.0092411906775322,-0.0132929353835632,0.002948557132989,-0.0050217093088672,0
0.7020000000000001,-0.0014658024691802,-0.0104178413101818,-0.0022676144507266,-0.0074893128055688,0
0.7030000000000001,-0.0040327253375897,-0.0049978547313188,-0.0025925454582593,-0.0033848833096891,0
0.704,0.0036270739607278,-0.0029829333197126,-0.0042664017312559,-0.0012591021510425,0
0.705,0.0158816355143227,-0.0027350850927763,-0.0078875176942745,0.0013498313542861,0
0.706,0.0091357521693854,-0.0028576667962125,-0.007363093606572,0.0029542504851099,0
0.707,0.0119570042404107,-0.0044882962786078,-0.0040731881630777,0.0090700425622955,0
0.708,0.0156226654328995,-0.0025599809709637,-0.007653330954294,0.0079136467131521,0
0.709,0.0110580398877256,-0.0011961847329124,-0.0039004350517843,-0.0018448286146479,0
0.71,0.00386352749667,0.0003116365450018,-0.0012090580449741,-0.004179725833355,0
0.711,0.0041255981915041,0.0044484672034403,-0.0042915844576902,0.0067553318261024,0
0.712,0.010975911298814,0.0062884845403142,-0.0034845016912264,0.0124541699201085,0
0.713,-0.0145425355096008,0.0017020874114686,-0.0029254350596843,0.0110418161821827,0
0.714,-0.0143411082088577,0.0024294704839722,-0.0010200643015289,0.0086868065470066,0
0.715,-0.0019873012305732,0.0043403168803995,-0.0008406695452154,0.006115529793223,0
0.716,0.0033223837239864,0.0060543720864978,0.0019570569479341,-0.0043271160703617,0
0.717,0.0010432559533166,0.0108828867836768,0.0004211177183098,-0.000648916919343,0
0.718,0.0009460453811673,0.0111873063279858,-0.0027259391045889,-0.010406773564928,0
0.719,-0.0014623643884001,0.0114556909560547,-0.0096512774966062,-0.0267714008503713,0
0.72,-0.0039522715077107,0.013558197643301,-0.0107836416731903,-0.0048641674440323,0
0.721,-0.0317060966985039,0.0019064203245706,-0.0072185382969601,-0.0014536008285911,0
0.722,-0.042687456100925,0.0037158001732611,-0.0119340891660375,-0.0133986712555908,0
0.723,-0.051224954631187,0.0048134028659111,-0.0083706474938644,-0.0074265540074531,0
0.724,-0.0165590660075883,0.0050430697357109,-0.0024560016313579,-0.00275348863399,0
0.725,-0.0022454013267154,0.0058770754612884,0.002066013314261,-0.0034750583972797,0
0.726,-0.0106046996731983,0.0064347238197787,0.0028923555604279,-0.0001679916601759,0
0.727,-0.0001994156209149,0.0072799058846791,0.0010923285403755,0.0029877482963637,0
0.728,0.0089934274870724,0.0054329987007564,-0.000855413420369,0.0024066757468483,0
0.729,0.0146217609576949,0.0072678854783742,0.0009067380256863,0.0034074124256443,0
0.73,0.013145167278162,0.0085261414703142,-0.0034525214609428,0.0037125593371216,0
0.731,0.0160018065784888,0.0073839082293805,0.0034832338666645,-0.0002679956128665,0
0.732,0.0038832921640511,0.008288175738051,0.0022748617285842,0.0025028388754795,0
0.733,0.005455979168071,0.0052745338744993,-0.0008506920093859,0.0019830832964252,0
0.734,0.0063061240459804,0.0043195118044238,-0.0028116559381679,-0.0003919601921375,0
0.735,0.0053608857553795,0.0072980013219316,0.0005397795693261,-0.0001413549755342,0
0.736,0.0082533641679075,0.005907274234352,-0.0058658607831504,-0.0037299882990623,0
0.737,0.0043589861576085,0.0081282810031702,0.0004363131047915,0.0001373043294181,0
0.738,0.008787128438273,0.0136176370118004,-0.0017128461768864,0.0016102405205525,0
0.739,0.0087759168081394,0.0083869253707969,-0.0057532830365716,0.0043575679749225,0
0.74,0.0103184514523038,0.0058640511393916,-0.0094939682729386,-0.0028439321740775,0
0.741,0.0168571353397599,0.0021899471539281,-0.0079530630585442,-7.440300139192743e-05,0
0.742,0.0130471474264487,-0.0019522515403944,-0.0019885399527267,0.008168269917528,0
0.743,0.0142190362440334,-0.0026152787975779,0.00418633902052,0.002277368986797,0
0.744,0.0130745639874905,-0.008676025216491,0.0011555266155327,-0.0010084048657014,0
0.745,0.0134729574468532,-0.015563676412659,0.0025360746071141,0.0017129549839621,0
0.746,0.0140526039798294,-0.0145754189939265,0.0036923366370241,0.0024353829322242,0
0.747,0.0065440693883652,-0.0080197981865276,0.0031218009044773,0.0066927324158013,0
0.748,0.0053847765807941,-0.0022244644317043,0.0051200185793938,0.0052297346764481,0
0.749,0.0062127665952718,0.0025208593795349,0.0019181477475176,0.0023333292625392,0
0.75,0.004469810165011,-0.0011992000228189,0.0045464752980795,-0.0021550377311733,0
0.751,-0.0213220550165123,-0.0002071010740871,0.0042322428074304,-0.003782618377169,0
0.752,-0.0221750809402678,-0.0004944710616722,0.0059404937350371,0.0027643446982003,0
0.753,-0.0063864127609417,-0.0001203812231648,0.0059982851983523,0.0026530811288121,0
0.754,0.0030820120133829,0.0059712246293548,0.0006287821494442,0.000549363267569,0
0.755,0.0051844734032126,0.0039284910619968,-0.0072966987579785,0.002445569653535,0
0.756,0.0014968699602222,0.0045484491261198,-0.007230885688205,-0.0004903963349836,0
0.757,0.0029491718303606,0.0013760381416598,-0.0027923764437789,-7.980847138838124e-05,0
0.758,0.0010145669727087,-0.0018543105627564,-0.0019653117112985,0.003865387950518,0
0.759,-0.0024352109403368,-0.0015657130618849,0.0025819348691056,0.0037592855292878,0
0.76,0.0042915122071902,0.0011446771959633,5.889990863026446e-05,0.0002293807176993,0
0.761,0.0005843019447226,0.0022025449200367,0.0049687787408211,-0.0088032199777379,0
0.762,-2.135886748759496e-05,0.0026001018652669,0.0067652327332958,-0.0026584564708639,0
0.763,-0.0005678062486556,0.0011638838266211,0.0061864357850576,-0.0034239090330014,0
0.764,0.0053764810539698,-0.0023867500357576,0.008607761369928,-0.0053862249721906,0
0.765,-0.0011192223259319,-0.0044498710378928,0.009575528673683,-0.0024517268804935,0
0.766,-0.0018630488545323,-0.0074005848121132,0.0078262209529045,-0.0030793213984185,0
0.767,-0.0002834433227439,-0.0106648513652648,0.0077781193325531,0.0013508996600249,0
0.768,0.0021907049701211,-0.0081910021102092,0.0112605617999413,0.0006458712267532,0
0.769,0.0004853061853153,-0.0084260163630537,0.009669089606714,-0.0002217667869956,0
0.77,1.192452699598007e-05,-0.0110887652093513,0.00198778417484,0.0085739748265391,0
0.771,-0.0006788828655477,-0.0093560433508487,-2.692968950889543e-05,0.007420246551937,0
0.772,-0.0011736465306512,-0.0052210228405199,-0.0044585228651517,0.0022453237499354,0
0.773,0.0051001062888444,-0.0017169012782281,-0.0020547240583494,0.0047155705243847,0
0.774,-0.0019519033989597,-0.0082322582527366,-0.0020490936542107,0.0304570628166152,0
0.775,-0.0053139170802293,-0.0126585331376449,0.0034380269666813,0.0194232501855989,0
0.776,-0.0055022628565352,-0.0097534174982119,-0.0011045027991252,-0.0006008100505147,0
0.777,-0.0109256840788773,-0.0041004669456121,-0.0048288552114607,0.0071463659978167,0
0.778,-0.0028508544942171,-0.0045931086922644,4.406385436893463e-06,-0.0036931101493848,0
0.779,-0.0019652609577911,-0.0085339283385223,-0.0005666140618024,-0.0218545800779113,0
0.78,-0.0119342201251535,-0.0063691355083734,-0.0009925679366177,-0.0149968859909878,0
0.781,-0.016390331983647,0.0004930949180358,0.0003312328335809,-0.0133705569841017,0
0.782,-0.0127889775744677,0.028438119005831,0.0020619238801243,-0.0256206217365977,0
0.783,-0.0124618326699477,0.0352770973416893,-0.0048028188960277,-0.0239290102127677,0
0.784,-0.0061570808727988,0.0272158876470743,0.0001421515811531,-0.0130536739478621,0
0.785,-0.0018727141198897,0.0093232805754926,0.0026365092945995,-0.0081256738588661,0
0.786,0.0008317288700034,-0.0038792705254736,-0.0010363826529249,-0.0075324346433402,0
0.787,-0.0093234160139315,-0.0040379537389158,-0.0041782141548299,-0.0027499813442296,0
0.788,-0.0023251422186015,-0.0105582059598151,-0.0054884225851372,0.0024666426257346,0
0.789,-0.0055093710223639,-0.0071771978821285,-0.0009063925603041,-0.0011648071732145,0
0.79,-0.0047136349933918,-0.007254568899614,0.0012329616006145,0.0010735401898113,0
0.791,-0.006166406793253,-0.0074467351035731,-0.0019980380116923,0.0039344269879543,0
0.792,-0.0065130498040045,-0.0102276316795392,-0.0040250606077136,0.003921414269044,0
0.793,-0.0041380810155632,-0.006351162585273,0.0008675062394335,0.0030648076940693,0
0.794,-0.0012792097647916,-0.0028527636209668,0.0020030262147203,0.0011688650484195,0
0.795,-0.0037234255501166,-0.0001442508978494,0.0054541851306786,0.001070477668814,0
0.796,0.0016429455992037,0.0046818327213858,0.0012835198877788,-1.690512930158409e-05,0
0.797,0.0022468156698104,0.010175784487094,0.0019707264348878,0.0017438801258937,0
0.798,0.0056149464121858,0.010291357681939,0.0053368272946129,-0.0023175866906344,0
0.799,0.0101754836204985,0.0121864909616323,0.0037201989851581,0.0039361584218827,0
0.8,0.0144051141722075,0.0099083974675798,0.0090449738164142,0.008652385536112,0
0.801,0.0137600034754345,0.0033686058994198,0.0054781767307608,0.0052374194635167,0
0.802,0.0144509236762252,0.0076547193071311,0.0022437933327091,0.0030242232411142,0
0.803,0.0120283111956143,0.0037171359326313,0.0019769271846565,0.0048253863683598,0
0.804,0.0192064073695013,0.0022348010849664,0.0001899411345948,0.0094148864660459,0
0.805,0.0165753523103632,-0.002691688839665,-0.0072017902258932,0.0117854246352657,0
0.806,0.0181370894477957,-0.0048982522504737,-0.0074657701801876,0.0078236598239994,0
0.807,0.012567423723082,-0.0047752339085681,-0.0120672653100345,0.0013496698473479,0
0.808,-0.0007059035172794,-0.003924709290022,-0.0160779211150167,-0.0026291025771936,0
0.809,-0.0043673985505042,-0.0051955587107212,-0.0131437479384651,0.0035394798573477,0
0.81,-0.0105279953674211,-0.0119742342508986,-0.0052502399905291,-0.0024025448884165,0
0.811,-0.0181669191567215,-0.0122589844396479,-0.0074551832317559,-0.0034685456315145,0
0.812,-0.0158987850380115,-0.0124506699263281,-0.0062438480010528,-0.0067005679263426,0
0.8130000000000001,-0.0327215413640212,-0.017099969313359,0.0004626304803617,-0.0039088659282232,0
0.8140000000000001,-0.0322947238002957,-0.0271324992654545,-0.0042216069107056,-0.0035443233892265,0
0.8150000000000001,-0.0233894356515069,-0.0246478937358768,-0.002214898192799,-0.0058719856441379,0
0.8160000000000001,-0.0135627583882591,-0.0198749715374588,-2.881996432874962e-05,-0.0068186267244526,0
0.8170000000000001,-0.0166106089009651,-0.0171028264927819,0.0037422893828679,-0.0040235204402915,0
0.8180000000000001,-0.0201742306953172,-0.0134293235321842,0.0026698250908545,-0.0024006490422173,0
0.8190000000000001,-0.0152218615161,-0.007786434518007,0.0040961808565104,-0.0010809579775902,0
0.8200000000000001,-0.0061942356601084,0.0030993931970822,0.0007501384998956,0.001354019098299,0
0.8210000000000001,0.0008089336349265,0.0066507409082157,-0.0027759604836312,-0.0048479483748251,0
0.8220000000000001,0.0094496268239835,0.0072038537343092,0.0005986393426275,0.0024087086777443,0
0.8230000000000001,0.0144750837268691,0.0074474172758327,0.0002988569337999,0.0058193750478475,0
0.8240000000000001,0.021339851795101,0.0076561593853988,-0.0044995706529928,0.0053224462176303,0
0.8250000000000001,0.0154494549750998,0.0116331502597105,-0.0107198138658808,0.0050260643246885,0
0.8260000000000001,0.0142717382893946,0.0089719528782934,-0.0101076179110644,0.0075913761458547,0
0.8270000000000001,0.0112130780616328,0.0136119071201635,-0.0043903062874699,0.0026764164676625,0
0.8280000000000001,0.0125140100220083,0.0173594248130576,0.0015492794483978,0.0062371343500749,0
0.8290000000000001,0.0119113770108082,0.0218562630218675,0.0066753009692457,0.0058118934485727,0
0.8300000000000001,0.0162863773845755,0.0193807479568856,0.0022597959210793,0.0061114856430038,0
0.8310000000000001,0.0145361639367795,0.0181486846755771,0.0032261380341185,0.0015107576824654,0
0.8320000000000001,0.0088325798391294,0.0221542927571956,0.0066364447218946,0.0033855964207912,0
0.833,0.0162511268901935,0.0217597782974068,0.0055243251273748,0.0003372307240443,0
0.834,0.0162247940551777,0.0237251568682204,0.0083648572123429,0.0012548917080151,0
0.835,0.0136042083944821,0.0185079950955745,0.005990779654871,0.0023866618222975,0
0.836,0.0128375477926757,0.0061697157392119,0.0063177508058434,-0.0026742418774536,0
0.837,0.0113811211559257,0.0048886396895473,0.0016478271224646,-0.0009163416625575,0
0.838,0.0100899028687435,0.0010177654783101,-0.002396962505681,0.0001292225880262,0
0.839,0.0107853239588764,-0.0023785807805517,-0.001590182092349,-0.0056742999028662,0
0.84,0.0005878020666762,-0.0024131804428368,-0.0022236201502318,-0.0032696259568449,0
0.841,-0.0048994628175061,-0.0039276673743017,-0.0034683378894414,-0.0041330666160505,0
0.842,-0.0063381745488714,-0.005918546890648,-0.0080457858330213,-0.0022807643523681,0
0.843,-0.0003193285338003,-0.0065050494634891,-0.0033006999711559,-0.0041530985776633,0
0.844,-0.0001357470730032,-0.010903298284821,0.0004160373637619,-0.0064248336680098,0
0.845,0.0022948244068254,-0.014389446276185,0.0018877832121492,0.0089764262084798,0
0.846,-0.00190223993947,-0.0140266920903336,0.0027864185702018,0.0187419992252325,0
0.847,0.0036435379388021,-0.0092868505895087,0.0049192934748612,0.0055706164212157,0
0.848,-0.0031943726584237,-0.0032745489249122,0.0089841499648724,-0.0044996901583569,0
0.849,-0.0122529461515362,-0.0038170214357671,0.0059275406269802,0.006580542769379,0
0.85,-0.0181026129081353,-0.0014401869394665,0.0063635617315128,0.0136939111419329,0
0.851,-0.0075635667388623,-0.006865432031096,0.0038297375788118,-0.0008279415177276,0
0.852,-0.0009120830858421,-0.009455767673779,0.0077945209889434,-0.0058854324679252,0
0.853,-0.0221571962241979,-0.0050217769796799,0.0034237849069598,-0.0065827979097488,0
0.854,-0.037199737160939,-0.0026750691011223,0.0007173600488171,-0.0140213980176249,0
0.855,-0.0044299836373127,-0.0001284192657322,0.0012490328243411,-0.0222903489643638,0
0.856,-0.0012832491425852,-0.0005836209676535,0.0030392251050115,-0.0097108478407166,0
0.857,-0.0044770396473116,0.0018136734016909,-0.0008051482241954,-0.0014250628947702,0
0.858,-0.0075585357163755,2.432537209665532e-06,0.0004044125891847,0.0001035716165138,0
0.859,-0.0384938236672169,-0.0045334450134496,-0.0006746124675588,0.0011625519836177,0
0.86,-0.0267448161122961,-0.0003650761508943,-0.0016207333332688,0.0032096467928467,0
0.861,-0.0003992226860661,0.0043208064078114,-0.002046955675128,0.0052518903427153,0
0.862,0.0067629231921629,0.0090922187700296,-0.0012134133906064,0.0034366869440685,0
0.863,0.0063804833312155,0.0090009289992427,0.0024636737078486,-0.001936160084931,0
0.864,0.0039513006020647,0.003954573468274,-0.0027765665889241,-0.0053059999070525,0
0.865,0.0060519633490257,0.0058269305508299,0.0001012821882305,-0.0061721367355073,0
0.866,0.0177491988108992,0.0073479295469765,-0.0014544290839992,-0.0056109750746643,0
0.867,0.0151398793302578,0.0111531457200045,-0.0003033084312558,-0.0037033833635129,0
0.868,0.0125042110880522,0.0142524665362831,9.970672468813244e-05,-0.0021867754052297,0
0.869,0.0140225743770114,0.0090684726790572,-0.0041747551723628,0.0035277086350416,0
0.87,0.006367115410712,0.0057366951103129,-0.002641157659891,0.0052301423324805,0
0.871,-0.0025119477538109,0.0025125905448497,-0.0022834283254298,0.0065254396466004,0
0.872,0.006607937923501,0.0025215751838263,-0.0020062539697974,0.000258845643885,0
0.873,0.0150676460368938,0.0019583991974459,-0.0034645911779317,0.0058606476889949,0
0.874,0.020325334459763,0.0038150012402357,-0.0052456085200333,0.0078520239195164,0
0.875,0.0148773530255931,-0.0045531156402086,-0.0074918297288669,0.0006330041469653,0
0.876,0.0082909745987447,-0.0126065034328031,-0.0087644414516954,-0.0067387212746678,0
0.877,0.0060331881746212,-0.0108862413695128,-0.0055004295042505,-0.0070315407111556,0
0.878,0.0037932500928212,-0.0084845770401898,0.0007252925856927,-0.010130565600667,0
0.879,-0.0043710124754166,-0.0056193092431205,-0.002865313011179,-0.0079007962872315,0
0.88,-0.0048060304246443,-0.005918399667953,-0.0025014897169817,0.0038824961431545,0
0.881,-0.0144271739211933,-0.0051937894788392,0.0011370285629933,0.0071368288650472,0
0.882,-0.0127728810559733,-0.0059018006362472,0.0037930878807493,-0.0033111719464499,0
0.883,-0.0046506167147319,-0.0127485758250776,0.0030782170526053,-0.0041419735369544,0
0.884,-0.0017009064048577,-0.0145132866454898,0.0024637254448152,-0.0048481317863893,0
0.885,-0.0005115172152858,-0.0151701512577742,0.0083302539198447,-0.0016556035292674,0
0.886,-0.0004936852724678,-0.0113173479543509,0.0047616186173021,0.0077703029380281,0
0.887,-0.0015958547899553,-0.0114933266411353,0.0054441110267836,0.0050497382354134,0
0.888,0.0004860996817067,-0.0084964732575069,-0.0030637781678575,0.0018002599822127,0
0.889,0.00264731650854,-0.004180060701264,-0.0114311456890044,-0.0002369652898917,0
0.89,0.0009634950046631,0.0002778131274831,-0.0068316545317379,0.0059873550128833,0
0.891,0.0025755479846975,-0.0057612044870845,-0.0043994266598718,0.0105416267153845,0
0.892,-0.0154191235931829,-0.014252609431906,0.0036900095513718,0.0074418848695724,0
0.893,-0.018051274743368,-0.0219495107049598,-0.0010137037432884,0.0051730223317775,0
0.894,-0.0126246031883242,-0.0215965802666045,-0.0002182618335005,0.0055802441475433,0
0.895,-0.0084692316721965,-0.0102978724888152,0.002605281652084,0.0016390638973606,0
0.896,-0.0080379664543741,-0.0089444533337104,0.003066505470754,-0.0046772099017079,0
0.897,-0.0075561520044723,-0.003303184603783,0.0054788287040261,-0.002601916095748,0
0.898,-0.0062757415221744,0.0013054092849446,0.0050827622331728,-0.0083481668022138,0
0.899,0.0009633099398693,0.0021429793558242,0.0069795480556892,-0.0074985131042279,0
0.9,0.0074827189064392,0.0275543753789934,0.0041455118472647,-0.0072231919552052,0
0.901,0.0107919382474854,0.0410771555312974,-0.0005847853681569,-0.0036109758116762,0
0.902,0.0094114514661638,0.0342957807489816,-0.001395747147229,-0.0053838576895164,0
0.903,0.0103449602071238,0.0251536781589653,0.0037915154363962,0.0073703831460039,0
0.904,0.0083318079471719,0.0170841613751089,0.0072341123943376,0.0182977275640214,0
0.905,0.0121932469267264,0.0147643230899306,-0.0023693731169183,-0.0020574135307613,0
0.906,0.0094097000757765,0.0130458418954011,-0.0056247065991305,-0.0099655586109415,0
0.907,0.0013356350778552,0.0095710430723884,-0.0082479245871221,-0.0048564558876362,0
0.908,-0.0053333747721234,0.0118049964235188,-0.0049943183400038,0.0069581703867962,0
0.909,-0.0008148823998073,0.010781037350755,-0.0052473671281949,0.0035320468594707,0
0.91,-0.0046416977526605,0.0045353648431924,-0.0030232805168705,0.0014781226203126,0
0.911,-0.0007391125210033,0.0014827718404593,-0.0015634599603619,0.0076173374233905,0
0.912,-0.0026895066523845,-0.0055442402456974,0.0046104155882386,0.0115170425640515,0
0.913,-0.0018807107666537,-0.0102009332322018,0.0054285163665736,0.003061708772498,0
0.914,-0.0029324153852676,-0.010881898988977,0.0070915893387875,-0.0016947927780874,0
0.915,0.0020913955641236,-0.0079311403600317,0.0039689714167407,0.0009465513617712,0
0.916,0.0032876797542027,-0.0049915664983209,0.008570818209888,-0.0216860057477724,0
0.917,-3.787001635389953e-05,-0.0003467102769121,0.0105863091868473,-0.0234262406984682,0
0.918,-0.0058594737780608,0.0007737567155478,0.0127819716285095,-0.0138668419678664,0
0.919,-0.001123421916538,0.0016523914207516,0.006107244772389,-0.0042316784325638,0
0.92,-0.0034905214075904,0.0011675819833068,0.0031025045474835,-0.0028235228049644,0
0.921,-0.0082277030155571,0.0030668050226573,0.0034154071983665,-0.0016982471533611,0
0.922,-0.0034572210624459,0.0005348605384823,-0.0038473332227468,-0.0008017464896878,0
0.923,-0.0102507188374743,-0.0032024680941988,-0.0060830130834855,-0.0002195341656708,0
0.924,-0.0139743809630016,-0.0111752540633693,-0.0066396506895163,-0.0040633638260486,0
0.925,-0.0180541416675011,-0.0117191768570969,-0.0100159478270065,0.006058647406129,0
0.926,-0.0056393681246613,-0.0029589174041337,-0.0043482772119847,0.0030980199994061,0
0.927,0.0090265176564063,0.0020345687845914,-0.0034285309732391,-0.0002994534336254,0
0.928,0.0095554656579777,0.0006476142681339,-0.0002589602236139,0.0035695729600395,0
0.929,0.009901519891447,-0.0039384066853547,-0.0012579172863893,0.0024253280378193,0
0.93,0.0112248063017356,-0.0090601016120008,-0.0003845264964386,0.0009564103964207,0
0.931,0.0098710241760336,-0.0084162810030029,0.0023586158992512,0.0077761065316845,0
0.932,0.0146549988141286,-0.007664282787013,-0.0013237547938216,0.0055051172733827,0
0.933,0.013277564896959,-0.0041703133293081,-0.0022907192624589,0.000415258400264,0
0.934,0.015972546147008,-0.0054982744336473,-0.0021168112097441,0.0041611647400499,0
0.935,0.0210857012664497,-0.0006341272058158,-0.0039971414102198,0.0080287694829361,0
0.936,0.0148284303101483,0.0019430183395386,-0.0067969647314548,0.0078926532873361,0
0.937,0.0147695104754919,0.0024128150986331,-0.0049654505634104,0.0080613182276912,0
0.9380000000000001,0.0153697287983016,0.0021508821455972,-0.0050963218429399,0.0074883150458017,0
0.9390000000000001,0.0097629984508235,0.0006841869576476,-0.0035436836737471,0.0064072787501347,0
0.9400000000000001,0.0025515839617325,0.0066707358021503,-0.0036508036468101,0.0069716797453553,0
0.9410000000000001,-0.0045010549154471,0.0149593550321328,-0.0025776328515832,0.0030735778397348,0
0.9420000000000001,-0.020477693750343,0.014222406909732,-0.0001133964613274,0.0056724413517494,0
0.9430000000000001,-0.0473526446676863,0.0116522713080511,-0.0075996858771727,0.0043333992752615,0
0.9440000000000001,-0.0559240106180488,0.00982273696894,-0.0046804717525381,0.0006939489657766,0
0.9450000000000001,-0.0347399792837995,0.0139275599617483,-0.0014573107825114,-0.0030365102070411,0
0.9460000000000001,-0.0097049869855593,0.0135928761519153,0.0001501018739554,-0.0056101528254972,0
0.9470000000000001,-5.105584589272147e-05,0.0105187600763655,-0.0007531097141422,-0.0053753052292795,0
0.9480000000000001,-0.0110205031405686,0.001304518166952,0.0049884391165741,-0.0053395076574032,0
0.9490000000000001,-0.0279135168797452,-0.0166225153540618,0.0031710719439152,-0.0024066863017346,0
0.9500000000000001,-0.0218241380045206,-0.0266760567429876,0.000760650496296,0.0027157536000617,0
0.9510000000000001,-0.0118327792342952,-0.0241366938813753,0.0062472959106023,0.0248190635608568,0
0.9520000000000001,-0.0051560691738911,-0.0167082200596814,-0.0006463414578073,-0.0008113775533198,0
0.9530000000000001,0.0082067805620677,-0.0100250944526903,-0.0057471179121565,-0.0116808301667827,0
0.9540000000000001,0.0129449716189816,-0.0077756307158213,-0.0035699805960618,-0.0018249823236215,0
0.9550000000000001,0.0186677180638192,-0.006600311227195,-0.0061521340340316,-0.0022539624412711,0
0.9560000000000001,0.0190052481330344,-0.0089295410986764,0.0004449555057027,0.0155940760418477,0
0.9570000000000001,0.0279645830233202,-0.0042076773784031,0.0017522082287229,0.010077249205602,0
0.9580000000000001,0.0145719761360139,-0.0049254560463102,0.0030702056173871,0.0065501135166277,0
0.9590000000000001,-0.004061597201616,-0.0108876516748557,0.0057931853664993,1.410820014776482e-05,0
0.96,0.0091413240198479,-0.0058218262842403,0.0043164312872033,-0.0115103418543858,0
0.961,-0.0009733533247385,-0.0037253884027686,0.0060167482137536,-0.0098977901322958,0
0.962,-0.0314150589062818,-0.0029993638588883,0.0075889019895415,-0.0123069451430236,0
0.963,-0.0145008704228334,0.0014314153113637,0.0032521400927147,-0.0199684471788538,0
0.964,-0.0220111974554908,0.0079519114135104,1.849617431326419e-05,-0.0157348838331372,0
0.965,-0.0123904517964421,0.0022171980372892,-0.0048344306706522,-0.0103894454290043,0
0.966,0.0003311919992183,0.0077245591344961,-0.0081137252496045,-0.0057025670783591,0
0.967,0.0128836472201987,0.0144707725747966,-0.0050726847688532,-0.0073148171087975,0
0.968,0.024655127021623,0.0193001397749291,-0.0035209305663055,-0.0053258537434353,0
0.969,0.0234272765753046,0.0154231916900287,-0.0011783156906405,-0.0028076274884266,0
0.97,0.0175740087127469,0.0114358687349681,-0.0044904784517867,0.00393120424229,0
0.971,0.0176328207326507,0.0104230748754758,-0.0008438532400486,0.0036164064638145,0
0.972,0.0174049278808703,0.0056815568384011,0.0023544991652448,0.01062383572415,0
0.973,0.0101090510953005,0.0056237188840432,0.0017706917319472,0.0090472364918684,0
0.974,-0.0002573929961061,0.0055922068946344,-0.0005319261825172,0.0014461002499228,0
0.975,-0.0104580992991344,0.000669858809015,0.0049324542395173,-0.0017146726155149,0
0.976,-0.01117386991762,-0.0006061961618974,0.0011438907262154,0.0002274065389926,0
0.977,0.0026477799026134,-0.0059167856869278,0.0030008242052501,0.0015154488426589,0
0.978,0.0115546367236241,-0.0020896949238287,0.0038575368323399,-0.0020215770237278,0
0.979,0.0109226483702119,-0.0021315475106676,0.0021624590656342,0.005013390455962,0
0.98,0.0103065515452444,-0.0031925994674032,-8.766338424585478e-05,0.0053753847613082,0
0.981,0.0121358298221669,-0.0082459258808501,0.0029005464546111,0.0077823308123135,0
0.982,0.0113646774501712,-0.0108366659417908,0.0069333345531109,0.0048881402446222,0
0.983,0.0118979961017053,-0.0052902139113534,0.0042288762121718,-0.001636141215196,0
0.984,0.0099394265856122,-0.0030800845044459,0.005294003624179,-0.0124060447649612,0
0.985,0.009784038902637,-0.0002380253354381,0.0080332103278223,-0.0070687619709244,0
0.986,0.0062024929269654,0.0068944180832752,0.0045074568921866,-0.0079307643005991,0
0.987,0.0111050130702437,0.0088603889585627,0.0084016349424082,-0.0062486597050283,0
0.988,0.0068678563369561,0.0112615652333537,0.008111706248134,-0.0086215497979842,0
0.989,0.005822273860051,0.0206001123600309,0.0069498227163922,-0.0056684399929946,0
0.99,0.0008638988373216,0.0289771020912192,0.0024842926598713,-0.0055195494066385,0
0.991,-0.0043861380050502,0.0025925170233229,0.0009126239156111,-0.0002911294422728,0
0.992,-0.000821115372647,0.0017654938567907,-0.0008833396826835,-0.0067875931494957,0
0.993,-0.0003650431588338,-0.003174834511274,0.0019563159891976,3.620066536105659e-05,0
0.994,-0.003532117432694,-0.0067174886889702,-0.0067598784104373,-0.0028601476389659,0
0.995,-0.0048375758418779,-0.0054231506740863,-0.0137024974010395,0.0022969534688261,0
0.996,-0.007725054429354,-0.00998167414924,-0.0062973841865532,0.0037184846835065,0
0.997,-0.0073372080695847,-0.0063757869540007,-0.0005126436566424,0.0091403926478818,0
0.998,-0.0110053515819705,-0.0049465591676249,0.0011986010796402,0.0202884557181245,0
0.999,-0.0066177116936655,-0.0109289436271307,-0.0003301088001139,0.0045298631631244,0
1.0,-0.0059010564383951,-0.0124272291168586,-0.0019024888204878,-0.0007859653423577,0
1.0010000000000001,-0.0014486058003877,-0.0102930655708003,0.000997313419191,0.0066288877170527,0
1.002,-0.0002234502659839,-0.0034898297012076,-0.001715058974214,0.0061269790629387,0
1.0030000000000001,0.00034538141243,-0.000268797331957,0.0025668722711475,0.0012211013224507,0
1.004,0.0013533956784235,0.0037768482129075,0.0038080977806647,0.0062220817856277,0
1.0050000000000001,0.0032823854099965,0.0057547410385347,0.0062451714773771,0.0029867280613668,0
1.006,-0.0024810099599235,0.0028303863225403,0.0032300600869356,2.061356224920225e-05,0
1.0070000000000001,-0.0032338517462599,0.0011259299778148,-8.011366201709906e-05,0.0046070040955143,0
1.008,-0.0047566534559374,-0.0009198265100581,-0.003807672028857,-0.0091430242173126,0
1.0090000000000001,-0.0034089556247233,-0.0039156137437178,-0.0050054452701148,-0.0197546902018409,0
1.01,0.0002447193821539,-0.0052466857797754,-0.0051985293371127,-0.0090116172465716,0
1.0110000000000001,-0.00142970230697,-0.0022903746325368,-0.0040962754403937,-0.0045774204111969,0
1.012,-0.0090885804708962,-0.0071217478744562,-0.0046456084550844,-0.0029141161836647,0
1.0130000000000001,-0.0035256357631809,-0.0038696309916452,-0.0041179524564121,-0.0036028959776458,0
1.014,-0.0003314940354881,0.0029344849296568,0.0001381244556036,-0.0021992689927118,0
1.0150000000000001,0.0052445157130129,0.0012339144345411,-0.0018777941898412,0.0033871850271158,0
1.016,-0.0100301862571203,-0.00183802203299,-0.0003745165137667,0.0069287552734663,0
1.0170000000000001,-0.0182843285250453,-0.0050743202096153,0.0023280225931565,0.0068749112391152,0
1.018,-0.0135126935210124,-0.0037723259681911,0.0057254809192814,0.0062636769863986,0
1.0190000000000001,-0.0138377932713302,-0.0034392973417239,0.0034793098586472,0.0112761328217596,0
1.02,-0.0069192701407583,-0.0050413713444222,0.0083818386471073,0.0054575303568678,0
1.0210000000000001,-0.0057453212823388,-0.0078777996645772,0.0030873240860406,0.0002834155572166,0
1.022,0.0025265151932511,-0.003891870737854,0.0041710776973553,-0.0011909549000947,0
1.0230000000000001,-0.0006254743190721,0.0010303763554113,0.0010152969317274,0.0055811001815639,0
1.024,-0.0008397842050644,-0.0004869509830968,-0.0056279843102477,0.001802063095574,0
1.025,-0.0056672344372032,0.0033771947571953,-0.001369851043677,0.0019234442875378,0
1.026,-0.0016906462539899,0.0038407898930429,-0.0073074378938511,0.0002781457931851,0
1.027,0.0033562153953918,0.0025228273614304,-0.0086530905829735,-0.0035618201962959,0
1.028,0.0003930731538638,0.0011763048245525,-0.0079222653238127,-0.0017928665095103,0
1.029,-0.0007380124080378,0.0036485293310029,-0.0077376070582061,0.0005326979324142,0
1.03,-0.0023630700695309,-0.0004820790979099,-0.0088158989736944,0.0073329833747247,0
1.031,-0.00440856590383,-0.0061395330383459,-0.0086102988910204,0.0104078242097289,0
1.032,-0.0043688225896971,-0.0102108566544793,-0.0035007707979505,0.0076423684431977,0
1.033,-0.0002306142246324,0.0062875900302845,-0.0023734451948822,-0.0007314486845047,0
1.034,0.0036291176605497,0.0107624937683538,-0.0030364771869807,0.0004822662319165,0
1.035,0.010042148122408,0.0029694209989433,0.0022205944681579,-0.001386172443282,0
1.036,0.0053212187637008,-0.003930590796564,0.0039891466833525,-0.0028673691349042,0
1.037,0.0048626166900655,0.0016218249821051,-0.0030292118330491,-0.0058016212934773,0
1.038,0.002635188734263,-0.0010843488236539,-0.0034845530246545,-0.0057345551998678,0
1.039,0.0044408957788838,0.0011764406380387,0.001503199237824,0.0037436234562914,0
1.04,0.0021150311206157,-0.0025360615640385,0.0005649813047735,0.0040452303553593,0
1.041,0.0068871929432888,-0.0018204720928654,0.0021792987233891,0.0035666471656878,0
1.042,0.0030287364113474,-0.0054056194538039,0.0088935712225065,0.0002472558123,0
1.043,-0.0173736957087553,-0.0102369243397299,0.0033200143471408,1.152822912600025e-05,0
1.044,-0.034465364701822,-0.013589370556437,-0.0004283841412899,-0.0068674483223939,0
1.045,-0.0197114503244881,-0.0122763085021754,-0.0039415131086906,-0.0014342421455619,0
1.046,-0.004011454791456,-0.009501315291277,-0.0056635639020013,0.000267491115175,0
1.047,-0.0136832585380161,-0.0076225649137366,-0.0026854194131719,-0.0016559720429231,0
1.048,-0.0205805037532198,-0.0046732856591114,-0.0066691880586775,-0.0034769983636907,0
1.049,-0.0070382762684806,-0.0051853214669517,-0.0046622885873101,-0.0070515125398521,0
1.05,-0.0033387530285504,-0.0031298947040186,-0.0004946712602271,-0.0033206130411985,0
1.051,-0.0046199961452416,-0.001368748906882,0.0134142768078999,0.0046407961688157,0
1.052,0.0076221952027694,0.0099069650279647,0.0070372303558076,0.0035572329174516,0
1.053,0.0202956441799931,0.0079166199009663,0.0030023193296045,-0.0018924616247548,0
1.054,0.0208518699173331,0.0183685351697049,-0.0013191093344961,-0.0078084159938882,0
1.055,0.0169075705994489,0.0165146319415852,-0.0005170992458154,-0.0066313599431328,0
1.056,0.0134872152275038,0.0096429714749144,0.0063362508050661,-0.0041628834342941,0
1.057,0.0103184678149202,0.010946542372675,0.002223006269554,-0.0061450173739243,0
1.058,-0.0016468420038113,0.0138551776641799,0.0032339520717176,-0.0022556763222726,0
1.059,-0.0219048567100552,0.0097719918074212,0.0059582846401509,0.0031784338276059,0
1.06,-0.0311374566534707,0.0035591779692959,0.0024576128802629,0.009276464003853,0
1.061,-0.0182448893661031,-0.0004192073233304,0.0019245242242349,0.0261501938986099,0
1.062,0.0055507134631805,-1.718114984394336e-05,-0.0040874094514655,0.0077784268334371,0
1.063,0.012625191568583,0.0017464313686348,-0.0147248622641842,-0.0050001351804766,0
1.064,0.0098233932883436,0.0035988136335845,-0.0172594716235924,-0.0049040000459042,0
1.065,0.0110192777676511,0.0067242730748023,-0.0079093863446623,-0.0059719558343683,0
1.066,0.0141897043020849,0.0071425501030112,0.0007301031465605,-0.0076822276573455,0
1.067,0.0177847293198673,0.0179850963895042,0.0024088094477764,0.0027246198998526,0
1.068,0.0241091370764647,0.0126904077773414,0.0053649120961892,0.0025696246187878,0
1.069,0.0118193708481955,0.014074328028534,0.0020094637595117,-0.0008737694833085,0
1.07,-0.0128849380710873,0.0197805211343776,0.0040154584285393,0.0065302384455984,0
1.071,0.005268449761175,0.0136476317351939,0.0037652962548118,0.0063883062010714,0
1.072,0.0181485982990481,0.0120116889518787,0.0033238976860679,-0.0015775570492074,0
1.073,0.016861399431047,0.0121760671375342,0.0063932955060993,-0.0052553142869598,0
1.074,0.0078899965058127,0.0045460056659513,0.0047246749567682,-0.0071717879991473,0
1.075,0.0088060995399623,-0.0012441670307209,0.0038728506775239,-0.0181859453658836,0
1.076,0.0188343872682026,-0.0078531779495455,0.0061305344639268,-0.0189911134609341,0
1.077,0.0202197386133588,-0.0093836572853269,0.0021405868218028,-0.0157407727609108,0
1.078,0.014027536368077,-0.01111442673607,-0.0033635033681021,-0.0082738833982477,0
1.079,0.0120245924739999,-0.0171945022585831,-0.0034059750557657,-0.0078462003146878,0
1.08,0.0127505276127795,-0.0164624983713119,-0.0010408745819352,-0.0031054202525648,0
1.081,0.0140102790871385,-0.0078940320771167,-0.0001381152661028,-7.642853551474363e-05,0
1.082,0.0125787521200205,0.0035816271055894,0.0022636693538676,0.004485615006642,0
1.083,0.0074945579011914,0.0020396024414139,0.000355837612181,0.0093484837291092,0
1.084,-0.0173834606554193,0.0031119165597467,0.0028128227014013,0.0052885197535236,0
1.085,-0.0176347157674394,0.0058586143252152,0.0027091930756759,0.0044764171193719,0
1.086,-0.0115439400245919,0.0050993928686527,0.0056590708778657,-0.0013177069198974,0
1.087,-0.0058431915691048,-0.001214722517375,0.0043732473979932,0.00800143585456,0
1.088,0.0009323100498457,0.001607041924778,0.0113035798744039,0.0050071079108786,0
1.089,0.0064947407121825,0.0023940033669801,0.0083375466348099,0.0018183507227064,0
1.09,-0.0001375447932759,0.0006747503125089,0.0039075070974669,0.0009829660127582,0
1.091,-0.001407969443791,0.0001714952108245,-0.0013633320077536,-0.0023002646548982,0
1.092,-0.0080186505505982,-0.0043987417367409,0.0011344347912265,-3.112846616223572e-05,0
1.093,-0.0094489825307301,-0.0062061441602223,-0.0063210999021408,-0.0010426620021878,0
1.094,-0.0152301214513974,-0.0106855254910297,-0.0083773968881732,0.0063833461734319,0
1.095,-0.0166698898001679,-0.0134882404688441,-0.0062793608358942,0.004191869605288,0
1.096,-0.0196705329688284,-0.017632568048816,-0.0014464486387824,0.0024468258753012,0
1.097,-0.0097676993745399,-0.0235618155591423,-0.0014231385928273,0.0010369889922471,0
1.098,-0.0083251490885435,-0.019703008067506,-0.0043018601935383,-0.0007398541592838,0
1.099,-0.0076415564341232,-0.0180215482774485,0.0006775869421883,-0.0046791833573843,0
1.1,-0.0013734950621123,-0.013380456876326,-0.0042308157762671,0.0001225248746772,0
1.101,-0.0022203012006534,-0.0078610048389859,-0.0010137646875286,-0.0023106345905571,0
1.102,0.0010891841092948,0.0002563093365156,-0.0002197646755318,-0.0018456054513022,0
1.103,0.0013768992890611,0.0025426383975914,0.0043860333714712,0.0043472510691587,0
1.104,-0.0103063226662227,0.0015557791144082,0.0038553320393793,0.0026458520831705,0
1.105,-0.0062294328876667,0.0013712757435531,0.000714876341154,-0.0036437742832938,0
1.106,-0.0055368703746796,0.0084083288452248,0.0016305233674953,0.0022682773333575,0
1.107,0.000551389908532,0.0063491776278484,0.0033246679144752,0.0017321822976419,0
1.108,0.0021345878018693,0.0038328482000407,0.0066660781808592,0.0048081821841086,0
1.109,0.0026723055057329,-0.0018695942103645,-0.0007838938229615,0.007112027360159,0
1.11,-0.0029506248207432,-0.0058509006620471,0.00215595357907,0.0054627601202322,0
1.111,-0.007725496450816,-0.0069798968022115,-0.0023847520601378,0.0055649550297894,0
1.112,-0.0106256921050101,-0.0128150501582854,-0.0020781109380405,0.0059086960998953,0
1.113,-0.0106160881324006,-0.0115632927346086,-0.0015785854231471,0.0094630669327086,0
1.114,0.0051943978782689,0.0029391162373577,-0.004881708731904,0.0005067231128566,0
1.115,0.0065533841634791,0.0008573696031967,-0.0056709636722743,0.0017217969230555,0
1.116,0.0070910352788465,0.0014290757764504,-0.0037953314170013,0.0041700173178715,0
1.117,0.0074725005277466,0.0106943885804046,-0.0025322208259363,-0.0085028686411975,0
1.118,0.0078603490079943,0.0082784335916017,-0.0101518663458026,0.0003142332750856,0
1.119,0.0094843692914041,0.0048172105669642,-0.009019863664003,0.0203912962557879,0
1.12,0.0080870755629626,-0.0011586891353216,-0.0067766470243634,0.0011618440281863,0
1.121,-0.0021356035113345,0.000480412169167,-0.0027691272337098,-0.0078127222483637,0
1.122,-0.004857778811869,0.0005147774738492,0.0020208513338727,-0.0036016420748186,0
1.123,-0.0133605560259707,0.0052851190902462,-0.0012331326067818,-0.0052832835863592,0
1.124,-0.033168868340843,0.0034932157393825,0.0031853713281522,0.0061462741997467,0
1.125,0.0010956163135753,0.0005250134190236,0.0075999337886709,0.0078038583645984,0
1.1260000000000001,0.0017801417982807,0.0032891108493925,0.0079301112559011,0.0103782387220537,0
1.127,-0.0007290924717468,0.0083999439288199,0.0091116738404581,0.0093681820089432,0
1.1280000000000001,-0.0007452445789851,0.0010758649346044,0.0038305334212199,0.0086461694737582,0
1.129,-0.0010393977720191,0.0005865848391297,0.0029762052358821,0.0036096350774581,0
1.1300000000000001,-0.0007091368761674,-0.0007698351022165,-0.0010326150939597,-0.0026348718988538,0
1.131,-0.0140349412928143,-5.553160221578627e-05,0.005337330562187,-0.005689072262901,0
1.1320000000000001,-0.0059695417029986,0.0110827890695681,-0.0013752510702839,-0.0077461005457301,0
1.133,0.0043516516781525,0.0116570943155541,-0.0025493625191272,-0.0263374584143635,0
1.1340000000000001,0.0073988650488863,0.0171283634810191,-0.0076411098796193,-0.0283742708739822,0
1.135,0.0135516145827408,0.0169231739052569,-0.0087147931132002,-0.0149474299267517,0
1.1360000000000001,0.0172065237040322,0.0123032238489527,-0.002486829724826,-0.0023933350199511,0
1.137,0.0126727851492416,0.0125522317341892,-0.007169440916156,-0.0072482208346053,0
1.1380000000000001,0.0006847994939192,0.003918076946625,0.0005197494550949,-0.0083893168471727,0
1.139,-0.0160966489776128,-0.0014764617873334,0.0013224521077184,-0.0016360862247015,0
1.1400000000000001,-0.0023110601277992,-0.0031230779444862,0.0034695766972949,-0.0081786818465759,0
1.141,-0.0043298113629284,-0.0051594286658542,0.0034280139755467,-0.0056577548357595,0
1.1420000000000001,-0.0053112691405535,-0.0088074340794351,0.0035711240090928,-0.0028654431381755,0
1.143,-0.0154819816003416,-0.0124377052098117,0.0046128599434209,-0.0050765881121181,0
1.1440000000000001,-0.0174677808489945,-0.0136905058202194,0.0031397967755265,-0.0036884528329838,0
1.145,-0.0071138801043011,-0.0071179612312398,0.0014724464741427,-0.0011703987578255,0
1.1460000000000001,0.0039458041060541,-0.0072189950210899,0.0023791835352877,0.0017190986096505,0
1.147,0.0070490714844198,-0.0103398638190945,-0.0048597646969311,0.0009120714433131,0
1.1480000000000001,0.0141145522187333,-0.0108217183050088,-0.0057653163478433,0.0013858187616788,0
1.149,0.0130026066973814,-0.0093001842617291,-0.0018433650763947,0.0042788305413211,0
1.1500000000000001,0.0189891896913147,-0.0060223542547467,-0.0070903072548113,0.0096972404945242,0
1.151,0.0129619344921006,-0.0035837310351358,-0.0051446137711656,0.0011105532487258,0
1.1520000000000001,0.0086447165929578,-0.0035846972864218,-0.0080253080946177,0.004555893886931,0
1.153,0.0125118049054463,-0.0012141122664571,-0.0039384546367627,0.0029594693780166,0
1.154,0.0039661658925024,-0.0070029213409519,-0.0016863814250909,-0.0006641872689042,0
1.155,-0.0303181054158581,-0.0026143023267667,-0.0036590576160656,0.0028176856517649,0
1.156,-0.0247198859979199,-0.0032311828657432,-0.000529375678722,0.0012209114709725,0
1.157,-0.0176624427244022,-0.0031907476009904,0.0045823818831889,0.0040813972257199,0
1.158,-0.0105596446196529,-0.0032026455479647,0.0034485609862779,0.0035378065765253,0
1.159,-0.0033312335811993,0.0012615921355745,0.0051229616801905,0.0053464179888841,0
1.16,0.0014442643952398,0.0072531506809923,0.0032048129957168,0.0059777899566063,0
1.161,0.0033413944343904,0.0065201681996323,0.001176321599672,0.0102759822599282,0
1.162,0.0012734571821285,-0.0022961170520616,0.001062401750131,0.0054997655317249,0
1.163,0.0015517635552911,0.0004817159107849,0.0058346487499161,0.0007816746212704,0
1.164,0.0060035222872338,-0.0011694021495027,-0.003963880567173,-0.0049135078555683,0
1.165,0.0097248798791746,0.0029730205063329,-0.000904323438202,-0.006482388696985,0
1.166,0.0102201816864023,0.0109865054663192,0.0035572097640539,-0.0027765917375753,0
1.167,0.0074516579357265,0.0088393911397725,0.000715419341057,-0.0014129461192062,0
1.168,0.0113683184587971,0.007452506898267,0.0021458304557361,0.0006645142122797,0
1.169,0.017464996263727,0.0138766112148724,0.0009958288073805,0.0022674567963427,0
1.17,0.0161590899221344,0.0120719070220962,0.0042755175297238,0.0115797104011908,0
1.171,0.0143516886423659,0.0112579770299837,0.0032233611072417,0.0047977509407967,0
1.172,0.0138715778717051,-0.0003496948698745,-0.001759683563966,-0.0057349121503539,0
1.173,0.0084255871499407,-0.0005784273176658,0.0004883056957497,0.0003742199561161,0
1.174,0.0078170240384199,-0.0027648167033033,0.0005649420757599,0.0065074029981193,0
1.175,0.0066225399298893,-0.0022701035325084,-0.0002237285596705,-0.0027744527789259,0
1.176,-0.0033424310245383,-0.009503970100586,0.0008334547794418,-0.007855670958002,0
1.177,-0.0108339949452243,-0.0086320398728177,-0.0004079447355832,-0.0039087287330139,0
1.178,-0.0111280619025674,-0.0050387266787424,0.0071805780554192,0.0028694770502309,0
1.179,-0.0077182776853253,0.0099622137097262,0.0066941284147508,0.0037196476930031,0
1.18,-0.0050617034353128,0.0250541398154529,0.0066857354137174,0.0188888902399156,0
1.181,-0.0057743258744689,0.0138316110510245,0.0048741068242834,0.0126604986883843,0
1.182,-0.0035713633746792,-0.0007161531937697,-0.001491341696684,0.0014737696472481,0
1.183,0.0005275815619623,0.0031722941102063,0.0015729767722478,0.002313762562963,0
1.184,0.0063366592639972,-0.0003763945942894,-0.0018491659172207,0.0057623880108121,0
1.185,0.0093665864296443,-0.0018901176602107,-0.0002829071794643,0.0016230032154169,0
1.186,0.0157098773518066,-0.0008880032236128,-0.010074790745408,0.0021730467305785,0
1.187,0.0146508419633799,-0.0060073659074034,-0.0145337839569941,-0.0036187994683324,0
1.188,0.0086994137090164,0.0007441218900869,-0.0070803890302424,-0.0083527914887578,0
1.189,0.0069331656182342,0.0059141393318421,-0.003239756610676,-0.0100252022325377,0
1.19,0.0043473702643479,0.0034755753746455,0.0010692369800142,-0.0115931387664086,0
1.191,-0.0077120676696015,0.0036143352036257,-0.0003953452745419,-0.0089818735084391,0
1.192,-0.0059834113986414,0.0020775986898574,0.0052164956701567,-0.0072088621305111,0
1.193,0.0006896616150422,0.0014767167004794,0.0081404132956515,-0.0018418328361285,0
1.194,-0.010582365375668,0.0019172730844726,0.0084244820379752,-0.0044131773534647,0
1.195,-0.0313311248721673,0.0022930766528694,0.0054092083557313,-0.0024902465021884,0
1.196,-0.027562993098966,0.0008163290192702,0.0053163541019137,-0.0054202104104098,0
1.197,-0.0123392439099766,-0.0007825055796689,0.0001600163154283,0.0031280001835139,0
1.198,-0.0058088000437329,-0.0065405905412807,-0.0001486065235499,0.0072622129586689,0
1.199,0.003029411956862,-0.003645993551607,-0.0030678626118137,0.0044753074225667,0
1.2,0.0024360680504419,-0.0017660035754355,-0.0036463767485317,0.0077893125043335,0
1.201,-0.0005702146882165,-0.0122241732724853,-0.0043672225443865,0.0039403370892503,0
1.202,-0.0044776461786121,-0.0100030384789525,-0.0039946556604971,-3.57705963617308e-05,0
1.203,-0.0054577483027551,-0.0118161786460204,-0.0033415085040264,0.00241138352937,0
1.204,-0.0023961343859884,-0.0073896917078015,-0.0008641288801797,-0.0123695299901611,0
1.205,0.0069052610122744,-0.0089760837048382,-0.0008597103095813,-0.0186479887891326,0
1.206,0.002649167143213,-0.0077282782148745,-0.0001230224867111,-0.0100052149074155,0
1.207,-0.0018908073887094,-0.0068216917623736,0.0008655178532951,0.0033894335659894,0
1.208,0.0026646930790414,0.00255675879191,0.0033683871817264,0.0002809264062789,0
1.209,0.0044394009618005,0.0015401996169511,0.0041722345136077,-0.0015935689036347,0
1.21,0.0056207453797393,-0.0012380946268373,0.0002015828473906,-0.0020590471892429,0
1.211,0.0037777816129278,-0.0012483907385854,-0.0035464526140083,-0.002912576526214,0
1.212,-0.0008147316696954,-0.0012036832941881,-0.0068883161622757,-0.0020570421571923,0
1.213,0.0003213819687676,-0.0006468658578819,-0.0002997614263411,0.0009223889525511,0
1.214,0.002783621440719,-0.0035985796136646,-0.0006488157856408,-0.0007962700832178,0
1.215,0.0007522970409496,0.0005089803813492,0.0001305096219448,0.0001905172622568,0
1.216,-0.0117221008916601,0.0037524836213399,0.0015784048823569,0.0075378195696962,0
1.217,-0.0078573041992334,-0.0001666537060149,-0.0002101559970751,0.004140595652171,0
1.218,-0.0036897040780508,0.0020493702883727,-0.0022775719486652,0.0092513674943233,0
1.219,0.0006472439455,0.0010912186479666,-0.0059233658768157,0.0078217506293719,0
1.22,-0.0096999971816997,-0.0004713581730826,-0.0055560031617064,0.0059137300218272,0
1.221,-0.0021150013990397,-0.0009317181026096,-0.0023321230365212,0.0039427594380473,0
1.222,-0.0045567694849864,0.0056167018285956,-0.0006346192232013,0.0026469789986529,0
1.223,-0.0050694356577838,-0.0017810464186382,-0.0004667186657362,0.0030648696603469,0
1.224,-0.0086701902713413,-0.0075705519893525,0.0010423036010703,0.0026257957571022,0
1.225,-0.0081321179707555,-0.0187511735864332,0.0035800170823633,0.001615031216054,0
1.226,-0.0025766557751165,-0.0168747485772142,0.0031940496691606,0.0023189200688611,0
1.227,-0.008743248108926,-0.0225889906168999,0.0049159815617724,0.0022725075890485,0
1.228,-0.008796541019314,-0.0180167014864281,0.0015085143482541,-0.000596563470516,0
1.229,-0.0086248427589601,-0.0130684999365703,0.0013634647743196,-0.0023514725301342,0
1.23,0.0006128014677354,-0.010845136039286,0.0025719547208532,-0.0032200500149808,0
1.231,-0.0033247455867559,-0.0008019622771174,0.0025358080413379,-0.0044913657049433,0
1.232,-0.0006516898804873,0.0084132119891639,0.0022505854453315,-0.0001168494614062,0
1.233,0.0030843293756305,0.0126741653675565,-0.0003290292835363,-0.004378492382381,0
1.234,0.0110480585267861,0.016008735726184,-0.0060011178721679,-0.001621110934486,0
1.235,-0.010234106422008,0.017139234880887,-0.0036158331018364,-0.00066608738318,0
1.236,-0.0117783258908532,0.017960212833031,-0.0027119622455602,0.0012780953273664,0
1.237,0.0049825498052912,0.0164253200066552,-0.0018860125440672,0.0041433357689433,0
1.238,0.0084966600104381,0.0158353194840592,-0.001517902629767,0.0037150326885314,0
1.239,0.012540027071375,0.0120973803842212,0.0015549607025852,-0.0015317868833021,0
1.24,0.0091237029779015,0.0056046188650925,0.0007632938588743,0.0006948896005704,0
1.241,0.0066448073731333,0.0019743051640737,0.0010822351121805,-0.0013464075092505,0
1.242,0.0076987704681762,0.0023345808832559,-0.0001773522012465,0.0041544783969888,0
1.243,0.0010430627845253,-0.0027862470907721,0.0005816444863916,0.0013789382723088,0
1.244,-0.0027885205206375,-0.0045268740605654,0.0032507449628287,-0.0020777509040474,0
1.245,-0.0035357221069669,-0.0051589641576594,0.0037497676218889,-0.0037700457374367,0
1.246,0.0035605566581713,-0.0011843127588216,-0.0010950124722415,0.0001324137670958,0
1.247,0.0104033970116875,0.0007039496861366,-0.0008970705567978,-0.0058376604709791,0
1.248,0.0161251532368023,-0.0058298224647738,-0.0031306690547826,-0.005610738008068,0
1.249,0.0104720957380541,-0.0069890512026343,-0.006728165465955,-0.0057133237782073,0
1.25,0.0102466331556055,-0.0088732601344561,-0.0031953245489942,-0.0016422281489548,0
1.2510000000000001,0.0068020089357325,-0.0007294940381091,0.000457530592113,0.0180369390053869,0
1.252,0.0105190791849937,0.0123407736805772,-0.0034311400659741,0.0106292305083907,0
1.2530000000000001,0.015085749187538,0.0134416264141705,-0.0078639932554378,0.00116133751237,0
1.254,0.0164576614372211,0.0127025842225032,-0.0045429064069747,0.0037759405385613,0
1.2550000000000001,0.0173433100218837,0.0155665846432138,0.0021113292857669,0.0013704812406326,0
1.256,-0.008437033909995,0.0172028146506871,-0.0002991093174322,-0.0073588918263859,0
1.2570000000000001,0.0018603866494597,0.018842338525418,0.0035668980724034,-0.0035622923257043,0
1.258,0.0135498732086266,0.0123105075937867,0.0004799804454176,-0.0062567186347831,0
1.2590000000000001,0.0157328396221201,0.0105135353640144,0.0037519091998294,-0.0073332110329538,0
1.26,0.0055518332964274,0.0027181969829971,0.0030122847169064,-0.0010353575125114,0
1.2610000000000001,0.0035975323913725,0.0031927677837622,0.0070385354711416,-0.0004650984965738,0
1.262,-0.0016707568310632,-0.0032419259185599,0.0092186410419316,-0.0008104358324074,0
1.2630000000000001,-0.0106378163731479,-0.0013592157539599,0.0059811431105474,-0.0017189733800832,0
1.264,-0.0251270213097481,-0.0061885044753522,-0.0002380459223992,-0.0032543803480196,0
1.2650000000000001,-0.0173407021483702,-0.0105738879461908,-0.0027341944586473,-0.0013312881481696,0
1.266,-0.0099944895443648,-0.0041571063344552,0.0006420152979834,-0.0038935139393309,0
1.2670000000000001,-0.002406089170192,-0.0060660108960089,-0.0027507787590429,-0.0083057147983068,0
1.268,-0.0063781563312808,-0.0025185877780534,-0.0020493903949898,-0.0083696058457909,0
1.2690000000000001,-0.0049615148297923,0.0020837397832202,-0.0062847634221194,-0.0085735834440462,0
1.27,-0.0066506133791509,-0.0021781646479642,-0.0033088672605884,0.0017149992429388,0
1.2710000000000001,-0.0138482701451901,-0.0043947367101811,-0.0045627574172283,0.0045261628389055,0
1.272,-0.012462619591523,-0.0035240610521629,-0.0021107229967638,-0.0017507492658625,0
1.2730000000000001,-0.0134278175111117,-0.0021698270185372,-0.0027206225330718,4.62651776594222e-05,0
1.274,-0.0071553318513445,0.0056501301067083,0.0049436736804364,0.0089713180426449,0
1.2750000000000001,-0.0056169197747663,0.0048277068010096,0.0120326265337882,0.0043475367063708,0
1.276,0.0011947425324125,0.0014281327273838,0.0099908848312774,0.0040231579349106,0
1.2770000000000001,-8.337239868905244e-05,0.000948629023841,0.010236281859589,-0.0025588682480822,0
1.278,0.0062955436931566,-0.0055070951510536,0.0075754293092003,-0.0140528112582485,0
1.2790000000000001,0.0057708916851234,-0.0119654379422253,0.0045015811468181,-0.0159792607497951,0
1.28,0.0114020698788692,-0.0089705103140828,0.0023491216265192,-0.0055689809122635,0
1.281,-0.0015321197782982,-0.0126354721060772,-0.0021830639998967,-0.0003411720958846,0
1.282,0.0044419729686026,-0.0073225967592188,-0.0017967170684545,0.0013003839993817,0
1.283,0.008591529296284,0.0076448204939741,-0.0093724531383127,0.0034563577563017,0
1.284,0.0117391020215278,0.009209072950923,-0.0030163101735412,0.0085400925445227,0
1.285,0.007723170758336,0.0090816977351133,-0.0011912551998489,0.0034717375537302,0
1.286,0.0035218820598244,0.0082910625258227,-0.0036023263598432,0.0030616624311377,0
1.287,-0.0014386123428682,0.0116505921452121,-0.0013752561318653,0.0066608902278988,0
1.288,0.0034087106379859,0.0053101000396613,0.001825780546996,0.0079005974792704,0
1.289,0.0061706086059605,0.004365963764217,-0.0008705839177749,0.0064789441993305,0
1.29,0.0076087744951269,0.0020663358390347,-0.0053900963846714,0.0162547503399185,0
1.291,0.0024230906043681,-0.0016713310511681,0.0017367950834068,0.0208592760890447,0
1.292,0.0020881970329073,-0.0089417205856201,0.0053062957160638,0.0075205602039259,0
1.293,-0.00499390468449,-0.0154104666100555,0.0023415184865136,0.0012652340682428,0
1.294,0.0011892391059057,-0.0174842640887164,0.0033977758638545,0.0033804747263839,0
1.295,-0.0014190976044579,-0.0155924712916768,0.0039595073329968,0.0049010013725059,0
1.296,0.0036439652013329,-0.0164106961396344,0.0034076111993432,0.004290545556101,0
1.297,0.0085918649065627,-0.0122702868575353,0.0011820992149707,0.0006392768308721,0
1.298,0.0095771653122747,-0.0124042699056925,0.0004004198966239,-0.0012004067942899,0
1.299,0.0066881533704931,-0.0108317954587801,-0.0081403187959004,0.0010182938907783,0
1.3,0.0069066558663654,-0.0172545742022635,-0.0028860022763069,-0.0014223731486425,0
1.301,-0.0031374086129173,-0.0221130819735756,-0.0073861544562777,-0.0004035288162679,0
1.302,-0.002013641000444,-0.0150372798237543,-0.0061058475581035,-9.107044965628666e-05,0
1.303,-0.0071217543996657,-0.0075682235446801,-0.0036020875243086,-0.0028594107688875,0
1.304,-0.00731327107239,-0.0068718486858971,-0.0049690480175444,-0.0035298798995713,0
1.305,-0.0231653665980052,-0.0061745235238011,-0.0010690592984149,-0.0015513305040932,0
1.306,-0.0398404468298843,-0.0083045196603013,-0.0020235089326181,-0.0057581244456997,0
1.307,-0.0161241527420739,0.0008941647181767,0.0003834885588762,-0.0093660582043415,0
1.308,-0.0086450256929107,0.0177996357926067,-0.0002900838767379,-0.0097246690910338,0
1.309,-0.0025533302332322,0.0291830755991501,0.0050516484268212,0.0067600444059632,0
1.31,-0.0020349203200731,0.0266923458156707,-0.0075687621834612,0.0054751304669611,0
1.311,-0.0001996342561411,0.0097539047261169,-0.0060921577296084,0.0028341515742215,0
1.312,0.0019672679176884,0.0128955956618425,-0.0035993805094894,0.0136464112335908,0
1.313,-0.0042694461564337,0.0090321253151602,-0.0012892463406963,0.0059723817505175,0
1.314,-0.0034827017621277,0.0104876427984599,0.0024837251542358,-0.0022603476788726,0
1.315,-0.004229355514772,0.0080415344706521,0.0025228806746528,-0.0002191560897665,0
1.316,-0.0075724954162946,0.003352570071855,0.0056802005800582,-0.0109258011606453,0
1.317,-0.0002963066018892,0.0002363213525465,0.0048155151572851,-0.0242845831656093,0
1.318,0.0048875198082945,0.0007192413000091,0.0042387622997183,-0.0182454973102596,0
1.319,0.0045260420268747,-0.0002881653181653,0.0013021731711026,-0.0159067778509301,0
1.32,0.0064630152458746,-0.0018133497354397,0.0002031259517145,-0.0126462708746147,0
1.321,0.0044510452517292,-0.0045606766699966,-0.003380552322787,-0.0115426141086449,0
1.322,0.0134037012771627,-0.0002950255579311,0.0019579884295348,-0.0049315011448513,0
1.323,0.0141197216860104,0.007799168841407,-0.0019626720060493,-0.0017704327790019,0
1.324,-0.0038619368158938,-3.078244198025489e-06,-0.0050586833889125,0.003026300738871,0
1.325,0.0032314941500214,-0.000170810153304,-0.0013968259918338,-0.0001652881820578,0
1.326,0.01499665584298,0.0028240353716119,-0.0002250880279173,0.0026270155807865,0
1.327,0.0120539725021824,-0.0024779754600906,-0.0072626745989882,-0.0029954112850951,0
1.328,0.0158358061762775,-0.006649244171418,-0.005679711137825,-0.0014432684759725,0
1.329,0.0110862885407362,-0.0147183531990591,-0.0001403783725236,0.0025588865676656,0
1.33,0.0074443473674327,-0.0197794727897293,0.0034138658404097,0.0005797316964832,0
1.331,0.0029429434797616,-0.011822427991657,0.0015497438495704,0.0020013148852668,0
1.332,-0.0001906915135049,-0.0057089630982743,0.0064468836951063,0.0081545645950859,0
1.333,-0.0164354878451381,-0.0057158040477221,0.0072715881496564,0.0032189554834076,0
1.334,-0.0316258218202367,-0.0085872293125615,0.0009713992734798,0.0028983333979664,0
1.335,-0.0295807579696539,-0.0089360225161959,-0.0002560882148295,0.0018033619512017,0
1.336,-0.0457227602079566,-0.0111710407354243,0.0015084113919398,0.0021229065185342,0
1.337,-0.0316175445280162,-0.0062183377133169,-0.002157502986652,0.0033546828050587,0
1.338,-0.0155304526421515,0.0039624083435241,-0.0025435372564076,0.0012301431541504,0
1.339,-0.0014597012486444,0.0132810778243697,-0.0041004448485303,0.0028642790899331,0
1.34,-0.0015500683796584,0.015190885765523,-0.0018905882759151,0.004681349324209,0
1.341,-0.0108053249256616,0.0180480691219262,0.0014189255676907,0.0007910827967716,0
1.342,-0.010456286170123,0.0222274808617719,-0.0003736250877676,0.0022688026149092,0
1.343,-0.0013726608616377,0.0193334829959928,0.0043654125589613,0.0011431740064583,0
1.344,0.0087706880639681,0.0212457036260877,0.0027140088288403,-0.0013039556911011,0
1.345,0.0182227681688476,0.0140075232104559,0.0001231264821051,0.0016597329444833,0
1.346,0.0120327286464642,0.0011144160916675,0.0018506055747801,0.0028436005729542,0
1.347,0.0113985347087524,0.0030482688507496,0.0086100853636771,0.0009380699919778,0
1.348,0.0212908766735484,0.0011639550525516,0.006393848504205,0.0031472722581039,0
1.349,0.0266143456294272,-0.0029259756517171,0.0023554256298056,-0.0012701447727023,0
1.35,0.0279506236583885,-0.0080941947372602,0.0025200241950685,-0.0013133495008008,0
1.351,0.0218200319237217,-0.0071627243296523,0.0025824048383293,0.0004786617859479,0
1.352,0.0178148792126139,-0.0044392574176061,0.0009863085524531,0.0016396840289212,0
1.353,0.0146501659599551,0.0042758347203308,-0.0019591322303771,-0.0008636967440714,0
1.354,0.0180009851851006,0.005917030560578,-0.001425835810193,0.0026520827321637,0
1.355,0.0151541394476018,0.0119200478685221,0.001445467208059,0.0058656650308093,0
1.356,-0.0147742062959262,0.0051611518909178,0.0018805599287325,0.0116621071543875,0
1.357,-0.0262043857808349,0.0026294530662479,-0.0009073371328546,0.0010167384899061,0
1.358,-0.01813549486716,0.0021124843111649,-0.00322797786193,-0.0011328532589189,0
1.359,-0.0147838346872861,0.0034777590252929,-0.0091679197042714,-0.0042076047361838,0
1.36,-0.008352025104078,0.0014353552727249,-0.0040443661455211,-0.0029435979457413,0
1.361,-0.007485620539155,0.004682042511404,-0.0003322801996711,0.009501411942905,0
1.362,-0.0027998828976976,2.190149280126242e-06,-0.0010722499415569,0.0064373913567694,0
1.363,-0.004646345973632,-0.005069725316896,0.0012349578324888,0.016869112283174,0
1.364,-0.0012146959255154,-0.0092300545251923,0.0054054873307313,0.0112535527432393,0
1.365,0.0082392269694513,-0.0041498454971512,-0.005173580472152,-0.0081333098762123,0
1.366,0.0124779350295035,-0.0034602798145239,6.681338219949469e-06,-0.0131675080704446,0
1.367,0.0080294633148321,-0.002932571965265,0.0075218845512335,-0.0070508555564308,0
1.368,0.0053737982425142,0.0044886498791913,-0.0027346462852196,-0.0070254548558046,0
1.369,0.000296625079034,0.0053861929654317,-0.001783865189952,0.0003631395863991,0
1.37,0.0018576965950852,0.003543261733002,0.0025637848269098,-0.0032322827266218,0
1.371,0.0070222904177613,-0.0008852653006152,0.0031238149791916,-0.0023800463723073,0
